# B10 + d > C11 + n   [B10_d__C11_n]   ref=TALYS2, Koning et al. 2023
# detailed balance: alpha=6.4225 beta=0 gamma=-75.0208  Q=6.4648
# T9                 rate                error
1.000000e-03   1.000000e-35   1.000000e+02
1.018629e-03   1.041981e-35   1.000000e+02
1.037605e-03   1.084742e-35   1.000000e+02
1.056935e-03   1.128366e-35   1.000000e+02
1.076624e-03   1.172950e-35   1.000000e+02
1.096681e-03   1.218611e-35   1.000000e+02
1.117111e-03   1.265482e-35   1.000000e+02
1.137921e-03   1.313719e-35   1.000000e+02
1.159120e-03   1.363497e-35   1.000000e+02
1.180713e-03   1.415013e-35   1.000000e+02
1.202708e-03   1.468490e-35   1.000000e+02
1.225114e-03   1.524178e-35   1.000000e+02
1.247936e-03   1.582355e-35   1.000000e+02
1.271184e-03   1.643334e-35   1.000000e+02
1.294865e-03   1.707461e-35   1.000000e+02
1.318987e-03   1.775124e-35   1.000000e+02
1.343558e-03   1.846753e-35   1.000000e+02
1.368587e-03   1.922832e-35   1.000000e+02
1.394083e-03   2.003898e-35   1.000000e+02
1.420053e-03   2.090555e-35   1.000000e+02
1.446507e-03   2.183477e-35   1.000000e+02
1.473454e-03   2.283425e-35   1.000000e+02
1.500903e-03   2.391252e-35   1.000000e+02
1.528864e-03   2.507923e-35   1.000000e+02
1.557345e-03   2.634530e-35   1.000000e+02
1.586357e-03   2.772310e-35   1.000000e+02
1.615909e-03   2.922669e-35   1.000000e+02
1.646012e-03   3.087213e-35   1.000000e+02
1.676675e-03   3.267776e-35   1.000000e+02
1.707910e-03   3.466461e-35   1.000000e+02
1.739726e-03   3.685688e-35   1.000000e+02
1.772136e-03   3.928244e-35   1.000000e+02
1.805149e-03   4.197357e-35   1.000000e+02
1.838777e-03   4.496768e-35   1.000000e+02
1.873032e-03   4.830831e-35   1.000000e+02
1.907924e-03   5.204629e-35   1.000000e+02
1.943467e-03   5.624111e-35   1.000000e+02
1.979672e-03   6.096266e-35   1.000000e+02
2.016551e-03   6.629327e-35   1.000000e+02
2.054117e-03   7.233031e-35   1.000000e+02
2.092383e-03   7.918922e-35   1.000000e+02
2.131362e-03   8.700746e-35   1.000000e+02
2.171068e-03   9.594917e-35   1.000000e+02
2.211512e-03   1.062111e-34   1.000000e+02
2.252711e-03   1.180300e-34   1.000000e+02
2.294676e-03   1.316916e-34   1.000000e+02
2.337424e-03   1.475424e-34   1.000000e+02
2.380968e-03   1.660040e-34   1.000000e+02
2.425323e-03   1.875912e-34   1.000000e+02
2.470504e-03   2.129358e-34   1.000000e+02
2.516527e-03   2.428156e-34   1.000000e+02
2.563407e-03   2.781929e-34   1.000000e+02
2.611161e-03   3.202629e-34   1.000000e+02
2.659804e-03   3.705169e-34   1.000000e+02
2.709354e-03   4.308241e-34   1.000000e+02
2.759826e-03   5.035380e-34   1.000000e+02
2.811239e-03   5.916356e-34   1.000000e+02
2.863610e-03   6.989016e-34   1.000000e+02
2.916956e-03   8.301700e-34   1.000000e+02
2.971296e-03   9.916467e-34   1.000000e+02
3.026648e-03   1.191346e-33   1.000000e+02
3.083031e-03   1.439864e-33   1.000000e+02
3.140465e-03   1.751386e-33   1.000000e+02
3.198969e-03   2.144848e-33   1.000000e+02
3.258562e-03   2.645713e-33   1.000000e+02
3.319266e-03   3.288502e-33   1.000000e+02
3.381101e-03   4.120404e-33   1.000000e+02
3.444087e-03   5.206494e-33   1.000000e+02
3.508247e-03   6.637310e-33   1.000000e+02
3.573602e-03   8.539991e-33   1.000000e+02
3.640175e-03   1.109478e-32   1.000000e+02
3.707988e-03   1.455972e-32   1.000000e+02
3.777064e-03   1.930805e-32   1.000000e+02
3.847427e-03   2.588521e-32   1.000000e+02
3.919100e-03   3.509703e-32   1.000000e+02
3.992109e-03   4.814730e-32   1.000000e+02
4.066478e-03   6.685194e-32   1.000000e+02
4.142232e-03   9.396066e-32   1.000000e+02
4.219398e-03   1.336842e-31   1.000000e+02
4.298001e-03   1.925431e-31   1.000000e+02
4.378069e-03   2.807383e-31   1.000000e+02
4.459628e-03   4.143940e-31   1.000000e+02
4.542706e-03   6.192631e-31   1.000000e+02
4.627332e-03   9.369124e-31   1.000000e+02
4.713535e-03   1.435148e-30   1.000000e+02
4.801343e-03   2.225771e-30   1.000000e+02
4.890787e-03   3.495122e-30   1.000000e+02
4.981898e-03   5.557176e-30   1.000000e+02
5.074705e-03   8.946680e-30   1.000000e+02
5.169242e-03   1.458297e-29   1.000000e+02
5.265540e-03   2.406285e-29   1.000000e+02
5.363631e-03   4.018885e-29   1.000000e+02
5.463550e-03   6.793002e-29   1.000000e+02
5.565331e-03   1.161866e-28   1.000000e+02
5.669007e-03   2.010615e-28   1.000000e+02
5.774615e-03   3.519822e-28   1.000000e+02
5.882190e-03   6.232637e-28   1.000000e+02
5.991770e-03   1.116150e-27   1.000000e+02
6.103390e-03   2.021486e-27   1.000000e+02
6.217090e-03   3.705084e-27   1.000000e+02
6.332908e-03   6.878218e-27   1.000000e+02
6.450884e-03   1.294422e-26   1.000000e+02
6.571058e-03   2.471545e-26   1.000000e+02
6.693470e-03   4.792097e-26   1.000000e+02
6.818162e-03   9.443179e-26   1.000000e+02
6.945178e-03   1.892856e-25   1.000000e+02
7.074559e-03   3.862439e-25   1.000000e+02
7.206351e-03   8.019266e-25   1.000000e+02
7.340598e-03   1.691470e-24   1.000000e+02
7.477346e-03   3.618803e-24   1.000000e+02
7.616642e-03   7.840628e-24   1.000000e+02
7.758532e-03   1.717656e-23   1.000000e+02
7.903066e-03   3.798702e-23   1.000000e+02
8.050292e-03   8.468240e-23   1.000000e+02
8.200261e-03   1.907785e-22   1.000000e+02
8.353023e-03   4.381965e-22   1.000000e+02
8.508632e-03   1.035771e-21   1.000000e+02
8.667139e-03   2.543117e-21   1.000000e+02
8.828599e-03   6.546797e-21   1.000000e+02
8.993067e-03   1.783625e-20   1.000000e+02
9.160598e-03   5.154602e-20   1.000000e+02
9.331251e-03   1.534220e-19   1.000000e+02
9.505083e-03   4.525334e-19   1.000000e+02
9.682153e-03   1.272779e-18   1.000000e+02
9.862522e-03   3.284459e-18   1.000000e+02
1.004625e-02   7.484115e-18   1.000000e+02
1.023340e-02   1.485351e-17   1.000000e+02
1.042404e-02   2.656656e-17   1.000000e+02
1.061823e-02   4.455022e-17   1.000000e+02
1.081604e-02   7.287242e-17   1.000000e+02
1.101753e-02   1.209661e-16   1.000000e+02
1.122277e-02   2.096731e-16   1.000000e+02
1.143184e-02   3.773580e-16   1.000000e+02
1.164481e-02   6.966079e-16   1.000000e+02
1.186174e-02   1.302985e-15   1.000000e+02
1.208271e-02   2.439820e-15   1.000000e+02
1.230780e-02   4.546841e-15   1.000000e+02
1.253708e-02   8.457808e-15   1.000000e+02
1.277063e-02   1.575967e-14   1.000000e+02
1.300854e-02   2.952044e-14   1.000000e+02
1.325087e-02   5.573680e-14   1.000000e+02
1.349772e-02   1.060152e-13   1.000000e+02
1.374917e-02   2.028854e-13   1.000000e+02
1.400531e-02   3.901577e-13   1.000000e+02
1.426621e-02   7.531642e-13   1.000000e+02
1.453198e-02   1.459294e-12   1.000000e+02
1.480269e-02   2.838147e-12   1.000000e+02
1.507845e-02   5.541159e-12   1.000000e+02
1.535935e-02   1.085981e-11   1.000000e+02
1.564548e-02   2.135941e-11   1.000000e+02
1.593694e-02   4.214847e-11   1.000000e+02
1.623382e-02   8.342030e-11   1.000000e+02
1.653624e-02   1.655268e-10   1.000000e+02
1.684430e-02   3.291180e-10   1.000000e+02
1.715809e-02   6.553921e-10   1.000000e+02
1.747773e-02   1.306463e-09   1.000000e+02
1.780332e-02   2.605668e-09   1.000000e+02
1.813498e-02   5.196963e-09   1.000000e+02
1.847281e-02   1.036259e-08   1.000000e+02
1.881694e-02   2.065764e-08   1.000000e+02
1.916748e-02   4.117174e-08   1.000000e+02
1.952456e-02   8.204221e-08   1.000000e+02
1.988828e-02   1.634588e-07   1.000000e+02
2.025878e-02   3.256011e-07   1.000000e+02
2.063618e-02   6.477949e-07   1.000000e+02
2.102061e-02   1.285251e-06   1.000000e+02
2.141220e-02   2.538975e-06   1.000000e+02
2.181109e-02   4.986211e-06   1.000000e+02
2.221741e-02   9.719547e-06   1.000000e+02
2.263130e-02   1.877613e-05   1.000000e+02
2.305289e-02   3.588990e-05   1.000000e+02
2.348235e-02   6.777445e-05   1.000000e+02
2.391980e-02   1.262434e-04   1.000000e+02
2.436540e-02   2.315913e-04   1.000000e+02
2.481930e-02   4.177610e-04   1.000000e+02
2.528166e-02   7.399498e-04   1.000000e+02
2.575263e-02   1.287439e-03   1.000000e+02
2.623238e-02   2.204402e-03   1.000000e+02
2.672106e-02   3.721336e-03   1.000000e+02
2.721885e-02   6.205190e-03   1.000000e+02
2.772591e-02   1.023915e-02   1.000000e+02
2.824241e-02   1.675058e-02   1.000000e+02
2.876854e-02   2.721807e-02   1.000000e+02
2.930447e-02   4.400991e-02   1.000000e+02
2.985038e-02   7.094370e-02   1.000000e+02
3.040646e-02   1.141417e-01   1.000000e+02
3.097291e-02   1.822926e-01   1.000000e+02
3.154990e-02   2.863847e-01   1.000000e+02
3.213764e-02   4.385645e-01   1.000000e+02
3.273634e-02   6.487335e-01   1.000000e+02
3.334618e-02   9.185331e-01   1.000000e+02
3.396739e-02   1.233575e+00   1.000000e+02
3.460016e-02   1.557130e+00   1.000000e+02
3.524473e-02   1.830708e+00   1.000000e+02
3.590130e-02   1.986529e+00   1.000000e+02
3.657011e-02   1.971509e+00   1.000000e+02
3.725137e-02   1.773279e+00   1.000000e+02
3.794533e-02   1.432440e+00   1.000000e+02
3.865221e-02   1.029777e+00   1.000000e+02
3.937226e-02   6.528653e-01   1.000000e+02
4.010573e-02   3.617199e-01   1.000000e+02
4.085286e-02   1.751850e-01   1.000000e+02
4.161391e-02   7.602128e-02   1.000000e+02
4.238913e-02   3.041909e-02   1.000000e+02
4.317880e-02   1.155020e-02   1.000000e+02
4.398317e-02   4.282768e-03   1.000000e+02
4.480254e-02   1.595918e-03   1.000000e+02
4.563716e-02   6.150457e-04   1.000000e+02
4.648734e-02   2.522748e-04   1.000000e+02
4.735335e-02   1.133365e-04   1.000000e+02
4.823549e-02   5.739242e-05   1.000000e+02
4.913407e-02   3.371222e-05   1.000000e+02
5.004939e-02   2.363889e-05   1.000000e+02
5.098176e-02   2.014299e-05   1.000000e+02
5.193150e-02   2.046342e-05   1.000000e+02
5.289893e-02   2.412538e-05   1.000000e+02
5.388438e-02   3.212885e-05   1.000000e+02
5.488820e-02   4.704629e-05   1.000000e+02
5.591071e-02   7.373072e-05   1.000000e+02
5.695227e-02   1.203783e-04   1.000000e+02
5.801323e-02   1.993007e-04   1.000000e+02
5.909396e-02   3.256969e-04   1.000000e+02
6.019482e-02   5.113999e-04   1.000000e+02
6.131619e-02   7.581597e-04   1.000000e+02
6.245845e-02   1.066729e-03   1.000000e+02
6.362198e-02   1.436541e-03   1.000000e+02
6.480720e-02   1.867370e-03   1.000000e+02
6.601449e-02   2.363025e-03   1.000000e+02
6.724427e-02   2.935686e-03   1.000000e+02
6.849697e-02   3.611035e-03   1.000000e+02
6.977300e-02   4.435189e-03   1.000000e+02
7.107280e-02   5.479905e-03   1.000000e+02
7.239681e-02   6.812699e-03   1.000000e+02
7.374549e-02   8.498645e-03   1.000000e+02
7.511929e-02   1.060863e-02   1.000000e+02
7.651869e-02   1.321424e-02   1.000000e+02
7.794416e-02   1.637923e-02   1.000000e+02
7.939618e-02   2.014687e-02   1.000000e+02
8.087525e-02   2.452215e-02   1.000000e+02
8.238187e-02   2.943084e-02   1.000000e+02
8.391656e-02   3.468517e-02   1.000000e+02
8.547985e-02   3.997414e-02   1.000000e+02
8.707225e-02   4.486481e-02   1.000000e+02
8.869432e-02   4.883388e-02   1.000000e+02
9.034660e-02   5.133768e-02   1.000000e+02
9.202967e-02   5.222970e-02   1.000000e+02
9.374409e-02   5.221812e-02   1.000000e+02
9.549045e-02   5.218749e-02   1.000000e+02
9.726934e-02   5.303615e-02   1.000000e+02
9.908137e-02   5.575158e-02   1.000000e+02
1.009272e-01   6.162417e-02   1.000000e+02
1.028073e-01   7.170015e-02   1.000000e+02
1.047225e-01   8.656993e-02   1.000000e+02
1.066734e-01   1.068576e-01   1.000000e+02
1.086606e-01   1.328461e-01   1.000000e+02
1.106848e-01   1.638939e-01   1.000000e+02
1.127468e-01   1.991209e-01   1.000000e+02
1.148472e-01   2.390297e-01   1.000000e+02
1.169866e-01   2.847181e-01   1.000000e+02
1.191660e-01   3.379510e-01   1.000000e+02
1.213859e-01   4.013448e-01   1.000000e+02
1.236472e-01   4.773292e-01   1.000000e+02
1.259506e-01   5.677986e-01   1.000000e+02
1.282970e-01   6.746277e-01   1.000000e+02
1.306870e-01   7.995497e-01   1.000000e+02
1.331216e-01   9.440279e-01   1.000000e+02
1.356015e-01   1.109121e+00   1.000000e+02
1.381276e-01   1.295179e+00   1.000000e+02
1.407008e-01   1.501576e+00   1.000000e+02
1.433219e-01   1.729688e+00   1.000000e+02
1.459919e-01   1.988115e+00   1.000000e+02
1.487115e-01   2.290776e+00   1.000000e+02
1.514819e-01   2.657771e+00   1.000000e+02
1.543038e-01   3.106344e+00   1.000000e+02
1.571784e-01   3.645847e+00   1.000000e+02
1.601064e-01   4.282779e+00   1.000000e+02
1.630891e-01   5.021824e+00   1.000000e+02
1.661273e-01   5.874920e+00   1.000000e+02
1.692220e-01   6.857409e+00   1.000000e+02
1.723745e-01   7.986354e+00   1.000000e+02
1.755856e-01   9.280691e+00   1.000000e+02
1.788566e-01   1.076139e+01   1.000000e+02
1.821885e-01   1.245178e+01   1.000000e+02
1.855825e-01   1.438027e+01   1.000000e+02
1.890397e-01   1.658149e+01   1.000000e+02
1.925614e-01   1.909636e+01   1.000000e+02
1.961486e-01   2.197341e+01   1.000000e+02
1.998026e-01   2.527052e+01   1.000000e+02
2.035248e-01   2.905519e+01   1.000000e+02
2.073162e-01   3.339849e+01   1.000000e+02
2.111783e-01   3.837846e+01   1.000000e+02
2.151123e-01   4.408293e+01   1.000000e+02
2.191197e-01   5.061040e+01   1.000000e+02
2.232016e-01   5.807108e+01   1.000000e+02
2.273597e-01   6.658787e+01   1.000000e+02
2.315951e-01   7.629743e+01   1.000000e+02
2.359095e-01   8.735112e+01   1.000000e+02
2.403043e-01   9.991605e+01   1.000000e+02
2.447809e-01   1.141759e+02   1.000000e+02
2.493409e-01   1.303319e+02   1.000000e+02
2.539859e-01   1.486052e+02   1.000000e+02
2.587174e-01   1.692510e+02   1.000000e+02
2.635371e-01   1.925586e+02   1.000000e+02
2.684465e-01   2.188517e+02   1.000000e+02
2.734474e-01   2.484922e+02   1.000000e+02
2.785414e-01   2.818853e+02   1.000000e+02
2.837304e-01   3.194842e+02   1.000000e+02
2.890160e-01   3.617966e+02   1.000000e+02
2.944000e-01   4.093910e+02   1.000000e+02
2.998844e-01   4.629048e+02   1.000000e+02
3.054710e-01   5.230449e+02   1.000000e+02
3.111616e-01   5.905659e+02   1.000000e+02
3.169582e-01   6.662862e+02   1.000000e+02
3.228628e-01   7.510995e+02   1.000000e+02
3.288774e-01   8.459785e+02   1.000000e+02
3.350041e-01   9.519790e+02   1.000000e+02
3.412449e-01   1.070244e+03   1.000000e+02
3.476019e-01   1.202005e+03   1.000000e+02
3.540774e-01   1.348596e+03   1.000000e+02
3.606735e-01   1.511559e+03   1.000000e+02
3.673925e-01   1.692682e+03   1.000000e+02
3.742366e-01   1.893967e+03   1.000000e+02
3.812083e-01   2.117658e+03   1.000000e+02
3.883098e-01   2.366277e+03   1.000000e+02
3.955436e-01   2.642660e+03   1.000000e+02
4.029122e-01   2.949999e+03   1.000000e+02
4.104181e-01   3.291593e+03   1.000000e+02
4.180637e-01   3.670631e+03   1.000000e+02
4.258518e-01   4.090426e+03   1.000000e+02
4.337850e-01   4.554414e+03   1.000000e+02
4.418660e-01   5.066121e+03   1.000000e+02
4.500975e-01   5.629120e+03   1.000000e+02
4.584824e-01   6.247270e+03   1.000000e+02
4.670234e-01   6.925718e+03   1.000000e+02
4.757236e-01   7.670482e+03   1.000000e+02
4.845859e-01   8.488331e+03   1.000000e+02
4.936132e-01   9.386902e+03   1.000000e+02
5.028087e-01   1.037483e+04   1.000000e+02
5.121755e-01   1.146124e+04   1.000000e+02
5.217169e-01   1.265510e+04   1.000000e+02
5.314359e-01   1.396595e+04   1.000000e+02
5.413360e-01   1.540404e+04   1.000000e+02
5.514206e-01   1.698027e+04   1.000000e+02
5.616930e-01   1.870634e+04   1.000000e+02
5.721568e-01   2.059465e+04   1.000000e+02
5.828155e-01   2.265839e+04   1.000000e+02
5.936727e-01   2.491154e+04   1.000000e+02
6.047322e-01   2.736885e+04   1.000000e+02
6.159978e-01   3.004642e+04   1.000000e+02
6.274732e-01   3.296209e+04   1.000000e+02
6.391624e-01   3.613500e+04   1.000000e+02
6.510694e-01   3.958576e+04   1.000000e+02
6.631981e-01   4.333644e+04   1.000000e+02
6.755528e-01   4.741076e+04   1.000000e+02
6.881377e-01   5.183412e+04   1.000000e+02
7.009570e-01   5.663380e+04   1.000000e+02
7.140151e-01   6.183883e+04   1.000000e+02
7.273165e-01   6.747957e+04   1.000000e+02
7.408657e-01   7.358809e+04   1.000000e+02
7.546673e-01   8.019844e+04   1.000000e+02
7.687260e-01   8.734665e+04   1.000000e+02
7.830465e-01   9.507085e+04   1.000000e+02
7.976339e-01   1.034113e+05   1.000000e+02
8.124930e-01   1.124107e+05   1.000000e+02
8.276289e-01   1.221146e+05   1.000000e+02
8.430468e-01   1.325713e+05   1.000000e+02
8.587519e-01   1.438320e+05   1.000000e+02
8.747496e-01   1.559509e+05   1.000000e+02
8.910453e-01   1.689851e+05   1.000000e+02
9.076446e-01   1.829951e+05   1.000000e+02
9.245531e-01   1.980438e+05   1.000000e+02
9.417766e-01   2.141964e+05   1.000000e+02
9.593209e-01   2.315209e+05   1.000000e+02
9.771921e-01   2.500887e+05   1.000000e+02
9.953962e-01   2.699739e+05   1.000000e+02
1.013939e+00   2.912540e+05   1.000000e+02
1.032828e+00   3.140111e+05   1.000000e+02
1.052069e+00   3.383320e+05   1.000000e+02
1.071668e+00   3.643070e+05   1.000000e+02
1.091632e+00   3.920309e+05   1.000000e+02
1.111968e+00   4.216023e+05   1.000000e+02
1.132683e+00   4.531243e+05   1.000000e+02
1.153783e+00   4.867042e+05   1.000000e+02
1.175277e+00   5.224540e+05   1.000000e+02
1.197171e+00   5.604899e+05   1.000000e+02
1.219473e+00   6.009331e+05   1.000000e+02
1.242191e+00   6.439094e+05   1.000000e+02
1.265332e+00   6.895503e+05   1.000000e+02
1.288904e+00   7.380021e+05   1.000000e+02
1.312915e+00   7.894259e+05   1.000000e+02
1.337373e+00   8.439936e+05   1.000000e+02
1.362287e+00   9.018880e+05   1.000000e+02
1.387665e+00   9.633045e+05   1.000000e+02
1.413516e+00   1.028452e+06   1.000000e+02
1.439848e+00   1.097552e+06   1.000000e+02
1.466671e+00   1.170845e+06   1.000000e+02
1.493993e+00   1.248586e+06   1.000000e+02
1.521825e+00   1.331036e+06   1.000000e+02
1.550175e+00   1.418379e+06   1.000000e+02
1.579053e+00   1.510741e+06   1.000000e+02
1.608469e+00   1.608227e+06   1.000000e+02
1.638434e+00   1.710916e+06   1.000000e+02
1.668956e+00   1.818855e+06   1.000000e+02
1.700047e+00   1.932058e+06   1.000000e+02
1.731717e+00   2.050497e+06   1.000000e+02
1.763977e+00   2.174105e+06   1.000000e+02
1.796838e+00   2.302954e+06   1.000000e+02
1.830312e+00   2.437351e+06   1.000000e+02
1.864409e+00   2.577660e+06   1.000000e+02
1.899141e+00   2.724301e+06   1.000000e+02
1.934520e+00   2.877751e+06   1.000000e+02
1.970558e+00   3.038554e+06   1.000000e+02
2.007267e+00   3.207326e+06   1.000000e+02
2.044661e+00   3.384637e+06   1.000000e+02
2.082751e+00   3.570819e+06   1.000000e+02
2.121550e+00   3.766162e+06   1.000000e+02
2.161073e+00   3.970950e+06   1.000000e+02
2.201331e+00   4.185455e+06   1.000000e+02
2.242340e+00   4.409939e+06   1.000000e+02
2.284112e+00   4.644650e+06   1.000000e+02
2.326663e+00   4.889815e+06   1.000000e+02
2.370006e+00   5.145645e+06   1.000000e+02
2.414157e+00   5.412324e+06   1.000000e+02
2.459130e+00   5.690011e+06   1.000000e+02
2.504942e+00   5.978835e+06   1.000000e+02
2.551606e+00   6.278945e+06   1.000000e+02
2.599140e+00   6.590634e+06   1.000000e+02
2.647559e+00   6.914234e+06   1.000000e+02
2.696881e+00   7.250083e+06   1.000000e+02
2.747121e+00   7.598533e+06   1.000000e+02
2.798297e+00   7.959947e+06   1.000000e+02
2.850426e+00   8.334702e+06   1.000000e+02
2.903527e+00   8.723189e+06   1.000000e+02
2.957617e+00   9.125812e+06   1.000000e+02
3.012714e+00   9.542994e+06   1.000000e+02
3.068838e+00   9.975129e+06   1.000000e+02
3.126007e+00   1.042253e+07   1.000000e+02
3.184242e+00   1.088548e+07   1.000000e+02
3.243561e+00   1.136427e+07   1.000000e+02
3.303985e+00   1.185917e+07   1.000000e+02
3.365535e+00   1.237044e+07   1.000000e+02
3.428231e+00   1.289834e+07   1.000000e+02
3.492096e+00   1.344310e+07   1.000000e+02
3.557150e+00   1.400496e+07   1.000000e+02
3.623416e+00   1.458418e+07   1.000000e+02
3.690917e+00   1.518104e+07   1.000000e+02
3.759675e+00   1.579581e+07   1.000000e+02
3.829714e+00   1.642875e+07   1.000000e+02
3.901058e+00   1.708014e+07   1.000000e+02
3.973730e+00   1.775022e+07   1.000000e+02
4.047757e+00   1.843924e+07   1.000000e+02
4.123163e+00   1.914743e+07   1.000000e+02
4.199973e+00   1.987497e+07   1.000000e+02
4.278214e+00   2.062204e+07   1.000000e+02
4.357913e+00   2.138881e+07   1.000000e+02
4.439097e+00   2.217542e+07   1.000000e+02
4.521792e+00   2.298200e+07   1.000000e+02
4.606029e+00   2.380867e+07   1.000000e+02
4.691835e+00   2.465553e+07   1.000000e+02
4.779239e+00   2.552267e+07   1.000000e+02
