# C11 + He3 > C10 + a   [C11_He3__C10_a]   ref=TALYS2, Koning et al. 2023
# detailed balance: alpha=6.0311 beta=0 gamma=-86.5452  Q=7.4579
# T9                 rate                error
1.000000e-03   1.000000e-35   1.000000e+02
1.018629e-03   9.995769e-36   1.000000e+02
1.037605e-03   9.991911e-36   1.000000e+02
1.056935e-03   9.988415e-36   1.000000e+02
1.076624e-03   9.985269e-36   1.000000e+02
1.096681e-03   9.982459e-36   1.000000e+02
1.117111e-03   9.979974e-36   1.000000e+02
1.137921e-03   9.977802e-36   1.000000e+02
1.159120e-03   9.975930e-36   1.000000e+02
1.180713e-03   9.974348e-36   1.000000e+02
1.202708e-03   9.973042e-36   1.000000e+02
1.225114e-03   9.972001e-36   1.000000e+02
1.247936e-03   9.971213e-36   1.000000e+02
1.271184e-03   9.970666e-36   1.000000e+02
1.294865e-03   9.970348e-36   1.000000e+02
1.318987e-03   9.970247e-36   1.000000e+02
1.343558e-03   9.970352e-36   1.000000e+02
1.368587e-03   9.970650e-36   1.000000e+02
1.394083e-03   9.971130e-36   1.000000e+02
1.420053e-03   9.971780e-36   1.000000e+02
1.446507e-03   9.972588e-36   1.000000e+02
1.473454e-03   9.973543e-36   1.000000e+02
1.500903e-03   9.974632e-36   1.000000e+02
1.528864e-03   9.975844e-36   1.000000e+02
1.557345e-03   9.977167e-36   1.000000e+02
1.586357e-03   9.978589e-36   1.000000e+02
1.615909e-03   9.980099e-36   1.000000e+02
1.646012e-03   9.981684e-36   1.000000e+02
1.676675e-03   9.983333e-36   1.000000e+02
1.707910e-03   9.985033e-36   1.000000e+02
1.739726e-03   9.986774e-36   1.000000e+02
1.772136e-03   9.988543e-36   1.000000e+02
1.805149e-03   9.990329e-36   1.000000e+02
1.838777e-03   9.992119e-36   1.000000e+02
1.873032e-03   9.993902e-36   1.000000e+02
1.907924e-03   9.995665e-36   1.000000e+02
1.943467e-03   9.997398e-36   1.000000e+02
1.979672e-03   9.999088e-36   1.000000e+02
2.016551e-03   1.000072e-35   1.000000e+02
2.054117e-03   1.000229e-35   1.000000e+02
2.092383e-03   1.000378e-35   1.000000e+02
2.131362e-03   1.000518e-35   1.000000e+02
2.171068e-03   1.000648e-35   1.000000e+02
2.211512e-03   1.000766e-35   1.000000e+02
2.252711e-03   1.000871e-35   1.000000e+02
2.294676e-03   1.000963e-35   1.000000e+02
2.337424e-03   1.001040e-35   1.000000e+02
2.380968e-03   1.001100e-35   1.000000e+02
2.425323e-03   1.001144e-35   1.000000e+02
2.470504e-03   1.001168e-35   1.000000e+02
2.516527e-03   1.001173e-35   1.000000e+02
2.563407e-03   1.001157e-35   1.000000e+02
2.611161e-03   1.001118e-35   1.000000e+02
2.659804e-03   1.001057e-35   1.000000e+02
2.709354e-03   1.000971e-35   1.000000e+02
2.759826e-03   1.000859e-35   1.000000e+02
2.811239e-03   1.000720e-35   1.000000e+02
2.863610e-03   1.000553e-35   1.000000e+02
2.916956e-03   1.000357e-35   1.000000e+02
2.971296e-03   1.000130e-35   1.000000e+02
3.026648e-03   9.998726e-36   1.000000e+02
3.083031e-03   9.995890e-36   1.000000e+02
3.140465e-03   9.992919e-36   1.000000e+02
3.198969e-03   9.989938e-36   1.000000e+02
3.258562e-03   9.987074e-36   1.000000e+02
3.319266e-03   9.984452e-36   1.000000e+02
3.381101e-03   9.982198e-36   1.000000e+02
3.444087e-03   9.980437e-36   1.000000e+02
3.508247e-03   9.979294e-36   1.000000e+02
3.573602e-03   9.978896e-36   1.000000e+02
3.640175e-03   9.979367e-36   1.000000e+02
3.707988e-03   9.980834e-36   1.000000e+02
3.777064e-03   9.983422e-36   1.000000e+02
3.847427e-03   9.987259e-36   1.000000e+02
3.919100e-03   9.992471e-36   1.000000e+02
3.992109e-03   9.999187e-36   1.000000e+02
4.066478e-03   1.000744e-35   1.000000e+02
4.142232e-03   1.001669e-35   1.000000e+02
4.219398e-03   1.002622e-35   1.000000e+02
4.298001e-03   1.003531e-35   1.000000e+02
4.378069e-03   1.004323e-35   1.000000e+02
4.459628e-03   1.004926e-35   1.000000e+02
4.542706e-03   1.005265e-35   1.000000e+02
4.627332e-03   1.005269e-35   1.000000e+02
4.713535e-03   1.004864e-35   1.000000e+02
4.801343e-03   1.003979e-35   1.000000e+02
4.890787e-03   1.002542e-35   1.000000e+02
4.981898e-03   1.000483e-35   1.000000e+02
5.074705e-03   9.977523e-36   1.000000e+02
5.169242e-03   9.944232e-36   1.000000e+02
5.265540e-03   9.906263e-36   1.000000e+02
5.363631e-03   9.864908e-36   1.000000e+02
5.463550e-03   9.821442e-36   1.000000e+02
5.565331e-03   9.777122e-36   1.000000e+02
5.669007e-03   9.733181e-36   1.000000e+02
5.774615e-03   9.690832e-36   1.000000e+02
5.882190e-03   9.651266e-36   1.000000e+02
5.991770e-03   9.615658e-36   1.000000e+02
6.103390e-03   9.584881e-36   1.000000e+02
6.217090e-03   9.558385e-36   1.000000e+02
6.332908e-03   9.535185e-36   1.000000e+02
6.450884e-03   9.514313e-36   1.000000e+02
6.571058e-03   9.494809e-36   1.000000e+02
6.693470e-03   9.475724e-36   1.000000e+02
6.818162e-03   9.456114e-36   1.000000e+02
6.945178e-03   9.435046e-36   1.000000e+02
7.074559e-03   9.411743e-36   1.000000e+02
7.206351e-03   9.387929e-36   1.000000e+02
7.340598e-03   9.367359e-36   1.000000e+02
7.477346e-03   9.353816e-36   1.000000e+02
7.616642e-03   9.351076e-36   1.000000e+02
7.758532e-03   9.362938e-36   1.000000e+02
7.903066e-03   9.393279e-36   1.000000e+02
8.050292e-03   9.445995e-36   1.000000e+02
8.200261e-03   9.517789e-36   1.000000e+02
8.353023e-03   9.593989e-36   1.000000e+02
8.508632e-03   9.658519e-36   1.000000e+02
8.667139e-03   9.694902e-36   1.000000e+02
8.828599e-03   9.686600e-36   1.000000e+02
8.993067e-03   9.617622e-36   1.000000e+02
9.160598e-03   9.486229e-36   1.000000e+02
9.331251e-03   9.349199e-36   1.000000e+02
9.505083e-03   9.276635e-36   1.000000e+02
9.682153e-03   9.337315e-36   1.000000e+02
9.862522e-03   9.606152e-36   1.000000e+02
1.004625e-02   1.017737e-35   1.000000e+02
1.023340e-02   1.113308e-35   1.000000e+02
1.042404e-02   1.248800e-35   1.000000e+02
1.061823e-02   1.424939e-35   1.000000e+02
1.081604e-02   1.640797e-35   1.000000e+02
1.101753e-02   1.891463e-35   1.000000e+02
1.122277e-02   2.170355e-35   1.000000e+02
1.143184e-02   2.481871e-35   1.000000e+02
1.164481e-02   2.835639e-35   1.000000e+02
1.186174e-02   3.245290e-35   1.000000e+02
1.208271e-02   3.729779e-35   1.000000e+02
1.230780e-02   4.310059e-35   1.000000e+02
1.253708e-02   5.005248e-35   1.000000e+02
1.277063e-02   5.837466e-35   1.000000e+02
1.300854e-02   6.832722e-35   1.000000e+02
1.325087e-02   8.022821e-35   1.000000e+02
1.349772e-02   9.451534e-35   1.000000e+02
1.374917e-02   1.117535e-34   1.000000e+02
1.400531e-02   1.326618e-34   1.000000e+02
1.426621e-02   1.581529e-34   1.000000e+02
1.453198e-02   1.893639e-34   1.000000e+02
1.480269e-02   2.277351e-34   1.000000e+02
1.507845e-02   2.751057e-34   1.000000e+02
1.535935e-02   3.338408e-34   1.000000e+02
1.564548e-02   4.070047e-34   1.000000e+02
1.593694e-02   4.985759e-34   1.000000e+02
1.623382e-02   6.137469e-34   1.000000e+02
1.653624e-02   7.593581e-34   1.000000e+02
1.684430e-02   9.444633e-34   1.000000e+02
1.715809e-02   1.181100e-33   1.000000e+02
1.747773e-02   1.485365e-33   1.000000e+02
1.780332e-02   1.878913e-33   1.000000e+02
1.813498e-02   2.391049e-33   1.000000e+02
1.847281e-02   3.061446e-33   1.000000e+02
1.881694e-02   3.943921e-33   1.000000e+02
1.916748e-02   5.112074e-33   1.000000e+02
1.952456e-02   6.667104e-33   1.000000e+02
1.988828e-02   8.748885e-33   1.000000e+02
2.025878e-02   1.155204e-32   1.000000e+02
2.063618e-02   1.535278e-32   1.000000e+02
2.102061e-02   2.054656e-32   1.000000e+02
2.141220e-02   2.770241e-32   1.000000e+02
2.181109e-02   3.764651e-32   1.000000e+02
2.221741e-02   5.158971e-32   1.000000e+02
2.263130e-02   7.132387e-32   1.000000e+02
2.305289e-02   9.952740e-32   1.000000e+02
2.348235e-02   1.402455e-31   1.000000e+02
2.391980e-02   1.996529e-31   1.000000e+02
2.436540e-02   2.872802e-31   1.000000e+02
2.481930e-02   4.180049e-31   1.000000e+02
2.528166e-02   6.152989e-31   1.000000e+02
2.575263e-02   9.160687e-31   1.000000e+02
2.623238e-02   1.378501e-30   1.000000e+02
2.672106e-02   2.095164e-30   1.000000e+02
2.721885e-02   3.214071e-30   1.000000e+02
2.772591e-02   4.972955e-30   1.000000e+02
2.824241e-02   7.755144e-30   1.000000e+02
2.876854e-02   1.218081e-29   1.000000e+02
2.930447e-02   1.925611e-29   1.000000e+02
2.985038e-02   3.061692e-29   1.000000e+02
3.040646e-02   4.893773e-29   1.000000e+02
3.097291e-02   7.875545e-29   1.000000e+02
3.154990e-02   1.279426e-28   1.000000e+02
3.213764e-02   2.103754e-28   1.000000e+02
3.273634e-02   3.510492e-28   1.000000e+02
3.334618e-02   5.960495e-28   1.000000e+02
3.396739e-02   1.032490e-27   1.000000e+02
3.460016e-02   1.829472e-27   1.000000e+02
3.524473e-02   3.324688e-27   1.000000e+02
3.590130e-02   6.213101e-27   1.000000e+02
3.657011e-02   1.197144e-26   1.000000e+02
3.725137e-02   2.384585e-26   1.000000e+02
3.794533e-02   4.923290e-26   1.000000e+02
3.865221e-02   1.056384e-25   1.000000e+02
3.937226e-02   2.361895e-25   1.000000e+02
4.010573e-02   5.517167e-25   1.000000e+02
4.085286e-02   1.345816e-24   1.000000e+02
4.161391e-02   3.398833e-24   1.000000e+02
4.238913e-02   8.799056e-24   1.000000e+02
4.317880e-02   2.312023e-23   1.000000e+02
4.398317e-02   6.105005e-23   1.000000e+02
4.480254e-02   1.604003e-22   1.000000e+02
4.563716e-02   4.151809e-22   1.000000e+02
4.648734e-02   1.048263e-21   1.000000e+02
4.735335e-02   2.556182e-21   1.000000e+02
4.823549e-02   5.960594e-21   1.000000e+02
4.913407e-02   1.315986e-20   1.000000e+02
5.004939e-02   2.723734e-20   1.000000e+02
5.098176e-02   5.252644e-20   1.000000e+02
5.193150e-02   9.503780e-20   1.000000e+02
5.289893e-02   1.629033e-19   1.000000e+02
5.388438e-02   2.671090e-19   1.000000e+02
5.488820e-02   4.230408e-19   1.000000e+02
5.591071e-02   6.534627e-19   1.000000e+02
5.695227e-02   9.940640e-19   1.000000e+02
5.801323e-02   1.503740e-18   1.000000e+02
5.909396e-02   2.284051e-18   1.000000e+02
6.019482e-02   3.517372e-18   1.000000e+02
6.131619e-02   5.524892e-18   1.000000e+02
6.245845e-02   8.827430e-18   1.000000e+02
6.362198e-02   1.428913e-17   1.000000e+02
6.480720e-02   2.333964e-17   1.000000e+02
6.601449e-02   3.831381e-17   1.000000e+02
6.724427e-02   6.295723e-17   1.000000e+02
6.849697e-02   1.031385e-16   1.000000e+02
6.977300e-02   1.677787e-16   1.000000e+02
7.107280e-02   2.700584e-16   1.000000e+02
7.239681e-02   4.300012e-16   1.000000e+02
7.374549e-02   6.780392e-16   1.000000e+02
7.511929e-02   1.059980e-15   1.000000e+02
7.651869e-02   1.644682e-15   1.000000e+02
7.794416e-02   2.535668e-15   1.000000e+02
7.939618e-02   3.888776e-15   1.000000e+02
8.087525e-02   5.938086e-15   1.000000e+02
8.238187e-02   9.009962e-15   1.000000e+02
8.391656e-02   1.352588e-14   1.000000e+02
8.547985e-02   2.000183e-14   1.000000e+02
8.707225e-02   2.900889e-14   1.000000e+02
8.869432e-02   4.108139e-14   1.000000e+02
9.034660e-02   5.656118e-14   1.000000e+02
9.202967e-02   7.574704e-14   1.000000e+02
9.374409e-02   9.976938e-14   1.000000e+02
9.549045e-02   1.308668e-13   1.000000e+02
9.726934e-02   1.730924e-13   1.000000e+02
9.908137e-02   2.337542e-13   1.000000e+02
1.009272e-01   3.262004e-13   1.000000e+02
1.028073e-01   4.709199e-13   1.000000e+02
1.047225e-01   6.965034e-13   1.000000e+02
1.066734e-01   1.044683e-12   1.000000e+02
1.086606e-01   1.572903e-12   1.000000e+02
1.106848e-01   2.353326e-12   1.000000e+02
1.127468e-01   3.479984e-12   1.000000e+02
1.148472e-01   5.095520e-12   1.000000e+02
1.169866e-01   7.406009e-12   1.000000e+02
1.191660e-01   1.071107e-11   1.000000e+02
1.213859e-01   1.545061e-11   1.000000e+02
1.236472e-01   2.224023e-11   1.000000e+02
1.259506e-01   3.191940e-11   1.000000e+02
1.282970e-01   4.563731e-11   1.000000e+02
1.306870e-01   6.494710e-11   1.000000e+02
1.331216e-01   9.185341e-11   1.000000e+02
1.356015e-01   1.287402e-10   1.000000e+02
1.381276e-01   1.782992e-10   1.000000e+02
1.407008e-01   2.433056e-10   1.000000e+02
1.433219e-01   3.275446e-10   1.000000e+02
1.459919e-01   4.388859e-10   1.000000e+02
1.487115e-01   5.910126e-10   1.000000e+02
1.514819e-01   8.072839e-10   1.000000e+02
1.543038e-01   1.119648e-09   1.000000e+02
1.571784e-01   1.566451e-09   1.000000e+02
1.601064e-01   2.195654e-09   1.000000e+02
1.630891e-01   3.066271e-09   1.000000e+02
1.661273e-01   4.262226e-09   1.000000e+02
1.692220e-01   5.897515e-09   1.000000e+02
1.723745e-01   8.123357e-09   1.000000e+02
1.755856e-01   1.113944e-08   1.000000e+02
1.788566e-01   1.520826e-08   1.000000e+02
1.821885e-01   2.067401e-08   1.000000e+02
1.855825e-01   2.799614e-08   1.000000e+02
1.890397e-01   3.779246e-08   1.000000e+02
1.925614e-01   5.089243e-08   1.000000e+02
1.961486e-01   6.841472e-08   1.000000e+02
1.998026e-01   9.187585e-08   1.000000e+02
2.035248e-01   1.233282e-07   1.000000e+02
2.073162e-01   1.654753e-07   1.000000e+02
2.111783e-01   2.218917e-07   1.000000e+02
2.151123e-01   2.973121e-07   1.000000e+02
2.191197e-01   3.979923e-07   1.000000e+02
2.232016e-01   5.321747e-07   1.000000e+02
2.273597e-01   7.106863e-07   1.000000e+02
2.315951e-01   9.477041e-07   1.000000e+02
2.359095e-01   1.261727e-06   1.000000e+02
2.403043e-01   1.676807e-06   1.000000e+02
2.447809e-01   2.224089e-06   1.000000e+02
2.493409e-01   2.943742e-06   1.000000e+02
2.539859e-01   3.887451e-06   1.000000e+02
2.587174e-01   5.122261e-06   1.000000e+02
2.635371e-01   6.734932e-06   1.000000e+02
2.684465e-01   8.837357e-06   1.000000e+02
2.734474e-01   1.157370e-05   1.000000e+02
2.785414e-01   1.512954e-05   1.000000e+02
2.837304e-01   1.974358e-05   1.000000e+02
2.890160e-01   2.572265e-05   1.000000e+02
2.944000e-01   3.346094e-05   1.000000e+02
2.998844e-01   4.346464e-05   1.000000e+02
3.054710e-01   5.638193e-05   1.000000e+02
3.111616e-01   7.303392e-05   1.000000e+02
3.169582e-01   9.446061e-05   1.000000e+02
3.228628e-01   1.219773e-04   1.000000e+02
3.288774e-01   1.572424e-04   1.000000e+02
3.350041e-01   2.023409e-04   1.000000e+02
3.412449e-01   2.598851e-04   1.000000e+02
3.476019e-01   3.331373e-04   1.000000e+02
3.540774e-01   4.261623e-04   1.000000e+02
3.606735e-01   5.440868e-04   1.000000e+02
3.673925e-01   6.933972e-04   1.000000e+02
3.742366e-01   8.822604e-04   1.000000e+02
3.812083e-01   1.120966e-03   1.000000e+02
3.883098e-01   1.422491e-03   1.000000e+02
3.955436e-01   1.803216e-03   1.000000e+02
4.029122e-01   2.283840e-03   1.000000e+02
4.104181e-01   2.890017e-03   1.000000e+02
4.180637e-01   3.652934e-03   1.000000e+02
4.258518e-01   4.610764e-03   1.000000e+02
4.337850e-01   5.810000e-03   1.000000e+02
4.418660e-01   7.306921e-03   1.000000e+02
4.500975e-01   9.169177e-03   1.000000e+02
4.584824e-01   1.147856e-02   1.000000e+02
4.670234e-01   1.433789e-02   1.000000e+02
4.757236e-01   1.787484e-02   1.000000e+02
4.845859e-01   2.224725e-02   1.000000e+02
4.936132e-01   2.765064e-02   1.000000e+02
5.028087e-01   3.432784e-02   1.000000e+02
5.121755e-01   4.257625e-02   1.000000e+02
5.217169e-01   5.275356e-02   1.000000e+02
5.314359e-01   6.529428e-02   1.000000e+02
5.413360e-01   8.072598e-02   1.000000e+02
5.514206e-01   9.968777e-02   1.000000e+02
5.616930e-01   1.229523e-01   1.000000e+02
5.721568e-01   1.514513e-01   1.000000e+02
5.828155e-01   1.863061e-01   1.000000e+02
5.936727e-01   2.288623e-01   1.000000e+02
6.047322e-01   2.807312e-01   1.000000e+02
6.159978e-01   3.438500e-01   1.000000e+02
6.274732e-01   4.205543e-01   1.000000e+02
6.391624e-01   5.136454e-01   1.000000e+02
6.510694e-01   6.264795e-01   1.000000e+02
6.631981e-01   7.630734e-01   1.000000e+02
6.755528e-01   9.282298e-01   1.000000e+02
6.881377e-01   1.127686e+00   1.000000e+02
7.009570e-01   1.368291e+00   1.000000e+02
7.140151e-01   1.658199e+00   1.000000e+02
7.273165e-01   2.007076e+00   1.000000e+02
7.408657e-01   2.426383e+00   1.000000e+02
7.546673e-01   2.929692e+00   1.000000e+02
7.687260e-01   3.533059e+00   1.000000e+02
7.830465e-01   4.255445e+00   1.000000e+02
7.976339e-01   5.119216e+00   1.000000e+02
8.124930e-01   6.150717e+00   1.000000e+02
8.276289e-01   7.380984e+00   1.000000e+02
8.430468e-01   8.846527e+00   1.000000e+02
8.587519e-01   1.059022e+01   1.000000e+02
8.747496e-01   1.266235e+01   1.000000e+02
8.910453e-01   1.512185e+01   1.000000e+02
9.076446e-01   1.803764e+01   1.000000e+02
9.245531e-01   2.149016e+01   1.000000e+02
9.417766e-01   2.557295e+01   1.000000e+02
9.593209e-01   3.039485e+01   1.000000e+02
9.771921e-01   3.608224e+01   1.000000e+02
9.953962e-01   4.278168e+01   1.000000e+02
1.013939e+00   5.066288e+01   1.000000e+02
1.032828e+00   5.992255e+01   1.000000e+02
1.052069e+00   7.078837e+01   1.000000e+02
1.071668e+00   8.352324e+01   1.000000e+02
1.091632e+00   9.843043e+01   1.000000e+02
1.111968e+00   1.158593e+02   1.000000e+02
1.132683e+00   1.362116e+02   1.000000e+02
1.153783e+00   1.599493e+02   1.000000e+02
1.175277e+00   1.876022e+02   1.000000e+02
1.197171e+00   2.197777e+02   1.000000e+02
1.219473e+00   2.571712e+02   1.000000e+02
1.242191e+00   3.005777e+02   1.000000e+02
1.265332e+00   3.509057e+02   1.000000e+02
1.288904e+00   4.092019e+02   1.000000e+02
1.312915e+00   4.766721e+02   1.000000e+02
1.337373e+00   5.546999e+02   1.000000e+02
1.362287e+00   6.448729e+02   1.000000e+02
1.387665e+00   7.490129e+02   1.000000e+02
1.413516e+00   8.692105e+02   1.000000e+02
1.439848e+00   1.007866e+03   1.000000e+02
1.466671e+00   1.167733e+03   1.000000e+02
1.493993e+00   1.351977e+03   1.000000e+02
1.521825e+00   1.564204e+03   1.000000e+02
1.550175e+00   1.808294e+03   1.000000e+02
1.579053e+00   2.088430e+03   1.000000e+02
1.608469e+00   2.409189e+03   1.000000e+02
1.638434e+00   2.775527e+03   1.000000e+02
1.668956e+00   3.192774e+03   1.000000e+02
1.700047e+00   3.666595e+03   1.000000e+02
1.731717e+00   4.202949e+03   1.000000e+02
1.763977e+00   4.808038e+03   1.000000e+02
1.796838e+00   5.489147e+03   1.000000e+02
1.830312e+00   6.255384e+03   1.000000e+02
1.864409e+00   7.117208e+03   1.000000e+02
1.899141e+00   8.086605e+03   1.000000e+02
1.934520e+00   9.177363e+03   1.000000e+02
1.970558e+00   1.040541e+04   1.000000e+02
2.007267e+00   1.178919e+04   1.000000e+02
2.044661e+00   1.334913e+04   1.000000e+02
2.082751e+00   1.510605e+04   1.000000e+02
2.121550e+00   1.708256e+04   1.000000e+02
2.161073e+00   1.930336e+04   1.000000e+02
2.201331e+00   2.179544e+04   1.000000e+02
2.242340e+00   2.458815e+04   1.000000e+02
2.284112e+00   2.771327e+04   1.000000e+02
2.326663e+00   3.120514e+04   1.000000e+02
2.370006e+00   3.510068e+04   1.000000e+02
2.414157e+00   3.943941e+04   1.000000e+02
2.459130e+00   4.426347e+04   1.000000e+02
2.504942e+00   4.961752e+04   1.000000e+02
2.551606e+00   5.554974e+04   1.000000e+02
2.599140e+00   6.211454e+04   1.000000e+02
2.647559e+00   6.937130e+04   1.000000e+02
2.696881e+00   7.738430e+04   1.000000e+02
2.747121e+00   8.622307e+04   1.000000e+02
2.798297e+00   9.596277e+04   1.000000e+02
2.850426e+00   1.066847e+05   1.000000e+02
2.903527e+00   1.184765e+05   1.000000e+02
2.957617e+00   1.314330e+05   1.000000e+02
3.012714e+00   1.456564e+05   1.000000e+02
3.068838e+00   1.612559e+05   1.000000e+02
3.126007e+00   1.783456e+05   1.000000e+02
3.184242e+00   1.970463e+05   1.000000e+02
3.243561e+00   2.174868e+05   1.000000e+02
3.303985e+00   2.398032e+05   1.000000e+02
3.365535e+00   2.641396e+05   1.000000e+02
3.428231e+00   2.906481e+05   1.000000e+02
3.492096e+00   3.194889e+05   1.000000e+02
3.557150e+00   3.508310e+05   1.000000e+02
3.623416e+00   3.848548e+05   1.000000e+02
3.690917e+00   4.217511e+05   1.000000e+02
3.759675e+00   4.617213e+05   1.000000e+02
3.829714e+00   5.049771e+05   1.000000e+02
3.901058e+00   5.517412e+05   1.000000e+02
3.973730e+00   6.022474e+05   1.000000e+02
4.047757e+00   6.567409e+05   1.000000e+02
4.123163e+00   7.154777e+05   1.000000e+02
4.199973e+00   7.787249e+05   1.000000e+02
4.278214e+00   8.467611e+05   1.000000e+02
4.357913e+00   9.198768e+05   1.000000e+02
4.439097e+00   9.983742e+05   1.000000e+02
4.521792e+00   1.082567e+06   1.000000e+02
4.606029e+00   1.172782e+06   1.000000e+02
4.691835e+00   1.269357e+06   1.000000e+02
4.779239e+00   1.372641e+06   1.000000e+02
