# Be10 + p > Li7 + a   [Be10_p__Li7_a]   ref=TALYS2
# detailed balance: alpha=0.10772 beta=0 gamma=-29.7379  Q=2.5626
# T9                 rate                error
1.000000e-03 1.000000e-35 1.000000e+02
1.018629e-03 1.086360e-35 1.000000e+02
1.037605e-03 1.184471e-35 1.000000e+02
1.056935e-03 1.296251e-35 1.000000e+02
1.076624e-03 1.423982e-35 1.000000e+02
1.096681e-03 1.570390e-35 1.000000e+02
1.117111e-03 1.738742e-35 1.000000e+02
1.137921e-03 1.932964e-35 1.000000e+02
1.159120e-03 2.157796e-35 1.000000e+02
1.180713e-03 2.418977e-35 1.000000e+02
1.202708e-03 2.723484e-35 1.000000e+02
1.225114e-03 3.079828e-35 1.000000e+02
1.247936e-03 3.498431e-35 1.000000e+02
1.271184e-03 3.992108e-35 1.000000e+02
1.294865e-03 4.576676e-35 1.000000e+02
1.318987e-03 5.271737e-35 1.000000e+02
1.343558e-03 6.101686e-35 1.000000e+02
1.368587e-03 7.097009e-35 1.000000e+02
1.394083e-03 8.295968e-35 1.000000e+02
1.420053e-03 9.746793e-35 1.000000e+02
1.446507e-03 1.151055e-34 1.000000e+02
1.473454e-03 1.366493e-34 1.000000e+02
1.500903e-03 1.630917e-34 1.000000e+02
1.528864e-03 1.957072e-34 1.000000e+02
1.557345e-03 2.361395e-34 1.000000e+02
1.586357e-03 2.865196e-34 1.000000e+02
1.615909e-03 3.496237e-34 1.000000e+02
1.646012e-03 4.290866e-34 1.000000e+02
1.676675e-03 5.296918e-34 1.000000e+02
1.707910e-03 6.577680e-34 1.000000e+02
1.739726e-03 8.217321e-34 1.000000e+02
1.772136e-03 1.032839e-33 1.000000e+02
1.805149e-03 1.306220e-33 1.000000e+02
1.838777e-03 1.662336e-33 1.000000e+02
1.873032e-03 2.129003e-33 1.000000e+02
1.907924e-03 2.744263e-33 1.000000e+02
1.943467e-03 3.560445e-33 1.000000e+02
1.979672e-03 4.649951e-33 1.000000e+02
2.016551e-03 6.113572e-33 1.000000e+02
2.054117e-03 8.092467e-33 1.000000e+02
2.092383e-03 1.078557e-32 1.000000e+02
2.131362e-03 1.447498e-32 1.000000e+02
2.171068e-03 1.956333e-32 1.000000e+02
2.211512e-03 2.662896e-32 1.000000e+02
2.252711e-03 3.650808e-32 1.000000e+02
2.294676e-03 5.041781e-32 1.000000e+02
2.337424e-03 7.014166e-32 1.000000e+02
2.380968e-03 9.831095e-32 1.000000e+02
2.425323e-03 1.388348e-31 1.000000e+02
2.470504e-03 1.975616e-31 1.000000e+02
2.516527e-03 2.833027e-31 1.000000e+02
2.563407e-03 4.094304e-31 1.000000e+02
2.611161e-03 5.963860e-31 1.000000e+02
2.659804e-03 8.756480e-31 1.000000e+02
2.709354e-03 1.296054e-30 1.000000e+02
2.759826e-03 1.933950e-30 1.000000e+02
2.811239e-03 2.909594e-30 1.000000e+02
2.863610e-03 4.413891e-30 1.000000e+02
2.916956e-03 6.752268e-30 1.000000e+02
2.971296e-03 1.041726e-29 1.000000e+02
3.026648e-03 1.621011e-29 1.000000e+02
3.083031e-03 2.546937e-29 1.000000e+02
3.140465e-03 4.049135e-29 1.000000e+02
3.198969e-03 6.527563e-29 1.000000e+02
3.258562e-03 1.069345e-28 1.000000e+02
3.319266e-03 1.784001e-28 1.000000e+02
3.381101e-03 3.037501e-28 1.000000e+02
3.444087e-03 5.289500e-28 1.000000e+02
3.508247e-03 9.441104e-28 1.000000e+02
3.573602e-03 1.730908e-27 1.000000e+02
3.640175e-03 3.266639e-27 1.000000e+02
3.707988e-03 6.359710e-27 1.000000e+02
3.777064e-03 1.280017e-26 1.000000e+02
3.847427e-03 2.669126e-26 1.000000e+02
3.919100e-03 5.778709e-26 1.000000e+02
3.992109e-03 1.301768e-25 1.000000e+02
4.066478e-03 3.054074e-25 1.000000e+02
4.142232e-03 7.418814e-25 1.000000e+02
4.219398e-03 1.850787e-24 1.000000e+02
4.298001e-03 4.703292e-24 1.000000e+02
4.378069e-03 1.207614e-23 1.000000e+02
4.459628e-03 3.107362e-23 1.000000e+02
4.542706e-03 7.947856e-23 1.000000e+02
4.627332e-03 2.004284e-22 1.000000e+02
4.713535e-03 4.942843e-22 1.000000e+02
4.801343e-03 1.182386e-21 1.000000e+02
4.890787e-03 2.721220e-21 1.000000e+02
4.981898e-03 5.976496e-21 1.000000e+02
5.074705e-03 1.244161e-20 1.000000e+02
5.169242e-03 2.463710e-20 1.000000e+02
5.265540e-03 4.678477e-20 1.000000e+02
5.363631e-03 8.589133e-20 1.000000e+02
5.463550e-03 1.536922e-19 1.000000e+02
5.565331e-03 2.702342e-19 1.000000e+02
5.669007e-03 4.706981e-19 1.000000e+02
5.774615e-03 8.188157e-19 1.000000e+02
5.882190e-03 1.434166e-18 1.000000e+02
5.991770e-03 2.549824e-18 1.000000e+02
6.103390e-03 4.632514e-18 1.000000e+02
6.217090e-03 8.595417e-18 1.000000e+02
6.332908e-03 1.624147e-17 1.000000e+02
6.450884e-03 3.116422e-17 1.000000e+02
6.571058e-03 6.055137e-17 1.000000e+02
6.693470e-03 1.187935e-16 1.000000e+02
6.818162e-03 2.346533e-16 1.000000e+02
6.945178e-03 4.653613e-16 1.000000e+02
7.074559e-03 9.240308e-16 1.000000e+02
7.206351e-03 1.834685e-15 1.000000e+02
7.340598e-03 3.642436e-15 1.000000e+02
7.477346e-03 7.230533e-15 1.000000e+02
7.616642e-03 1.435122e-14 1.000000e+02
7.758532e-03 2.848001e-14 1.000000e+02
7.903066e-03 5.650883e-14 1.000000e+02
8.050292e-03 1.121028e-13 1.000000e+02
8.200261e-03 2.225389e-13 1.000000e+02
8.353023e-03 4.430062e-13 1.000000e+02
8.508632e-03 8.863398e-13 1.000000e+02
8.667139e-03 1.786278e-12 1.000000e+02
8.828599e-03 3.634365e-12 1.000000e+02
8.993067e-03 7.481878e-12 1.000000e+02
9.160598e-03 1.558308e-11 1.000000e+02
9.331251e-03 3.248761e-11 1.000000e+02
9.505083e-03 6.687480e-11 1.000000e+02
9.682153e-03 1.340745e-10 1.000000e+02
9.862522e-03 2.582421e-10 1.000000e+02
1.004625e-02 4.714099e-10 1.000000e+02
1.023340e-02 8.124135e-10 1.000000e+02
1.042404e-02 1.341771e-09 1.000000e+02
1.061823e-02 2.160536e-09 1.000000e+02
1.081604e-02 3.450522e-09 1.000000e+02
1.101753e-02 5.560396e-09 1.000000e+02
1.122277e-02 9.153688e-09 1.000000e+02
1.143184e-02 1.535587e-08 1.000000e+02
1.164481e-02 2.611053e-08 1.000000e+02
1.186174e-02 4.476044e-08 1.000000e+02
1.208271e-02 7.695036e-08 1.000000e+02
1.230780e-02 1.323247e-07 1.000000e+02
1.253708e-02 2.278799e-07 1.000000e+02
1.277063e-02 3.935946e-07 1.000000e+02
1.300854e-02 6.828316e-07 1.000000e+02
1.325087e-02 1.191167e-06 1.000000e+02
1.349772e-02 2.088756e-06 1.000000e+02
1.374917e-02 3.679452e-06 1.000000e+02
1.400531e-02 6.507036e-06 1.000000e+02
1.426621e-02 1.154659e-05 1.000000e+02
1.453198e-02 2.055508e-05 1.000000e+02
1.480269e-02 3.670626e-05 1.000000e+02
1.507845e-02 6.574723e-05 1.000000e+02
1.535935e-02 1.181064e-04 1.000000e+02
1.564548e-02 2.127340e-04 1.000000e+02
1.593694e-02 3.841262e-04 1.000000e+02
1.623382e-02 6.951541e-04 1.000000e+02
1.653624e-02 1.260331e-03 1.000000e+02
1.684430e-02 2.288112e-03 1.000000e+02
1.715809e-02 4.157695e-03 1.000000e+02
1.747773e-02 7.557939e-03 1.000000e+02
1.780332e-02 1.373798e-02 1.000000e+02
1.813498e-02 2.495779e-02 1.000000e+02
1.847281e-02 4.530437e-02 1.000000e+02
1.881694e-02 8.217295e-02 1.000000e+02
1.916748e-02 1.489306e-01 1.000000e+02
1.952456e-02 2.697222e-01 1.000000e+02
1.988828e-02 4.881339e-01 1.000000e+02
2.025878e-02 8.827269e-01 1.000000e+02
2.063618e-02 1.593596e+00 1.000000e+02
2.102061e-02 2.867943e+00 1.000000e+02
2.141220e-02 5.137782e+00 1.000000e+02
2.181109e-02 9.148845e+00 1.000000e+02
2.221741e-02 1.617019e+01 1.000000e+02
2.263130e-02 2.832661e+01 1.000000e+02
2.305289e-02 4.911087e+01 1.000000e+02
2.348235e-02 8.414662e+01 1.000000e+02
2.391980e-02 1.422802e+02 1.000000e+02
2.436540e-02 2.370683e+02 1.000000e+02
2.481930e-02 3.886840e+02 1.000000e+02
2.528166e-02 6.262355e+02 1.000000e+02
2.575263e-02 9.918984e+02 1.000000e+02
2.623238e-02 1.547106e+03 1.000000e+02
2.672106e-02 2.380374e+03 1.000000e+02
2.721885e-02 3.619022e+03 1.000000e+02
2.772591e-02 5.446370e+03 1.000000e+02
2.824241e-02 8.127212e+03 1.000000e+02
2.876854e-02 1.204602e+04 1.000000e+02
2.930447e-02 1.776485e+04 1.000000e+02
2.985038e-02 2.611228e+04 1.000000e+02
3.040646e-02 3.829636e+04 1.000000e+02
3.097291e-02 5.575835e+04 1.000000e+02
3.154990e-02 7.992176e+04 1.000000e+02
3.213764e-02 1.118334e+05 1.000000e+02
3.273634e-02 1.514877e+05 1.000000e+02
3.334618e-02 1.969841e+05 1.000000e+02
3.396739e-02 2.438270e+05 1.000000e+02
3.460016e-02 2.848901e+05 1.000000e+02
3.524473e-02 3.115777e+05 1.000000e+02
3.590130e-02 3.162986e+05 1.000000e+02
3.657011e-02 2.955415e+05 1.000000e+02
3.725137e-02 2.520453e+05 1.000000e+02
3.794533e-02 1.945477e+05 1.000000e+02
3.865221e-02 1.347750e+05 1.000000e+02
3.937226e-02 8.309532e+04 1.000000e+02
4.010573e-02 4.521516e+04 1.000000e+02
4.085286e-02 2.171929e+04 1.000000e+02
4.161391e-02 9.423934e+03 1.000000e+02
4.238913e-02 3.793248e+03 1.000000e+02
4.317880e-02 1.454622e+03 1.000000e+02
4.398317e-02 5.457780e+02 1.000000e+02
4.480254e-02 2.057674e+02 1.000000e+02
4.563716e-02 8.005694e+01 1.000000e+02
4.648734e-02 3.301039e+01 1.000000e+02
4.735335e-02 1.481491e+01 1.000000e+02
4.823549e-02 7.432098e+00 1.000000e+02
4.913407e-02 4.280113e+00 1.000000e+02
5.004939e-02 2.906011e+00 1.000000e+02
5.098176e-02 2.364995e+00 1.000000e+02
5.193150e-02 2.266405e+00 1.000000e+02
5.289893e-02 2.494186e+00 1.000000e+02
5.388438e-02 3.074070e+00 1.000000e+02
5.488820e-02 4.138109e+00 1.000000e+02
5.591071e-02 5.933387e+00 1.000000e+02
5.695227e-02 8.837425e+00 1.000000e+02
5.801323e-02 1.333462e+01 1.000000e+02
5.909396e-02 1.987820e+01 1.000000e+02
6.019482e-02 2.855206e+01 1.000000e+02
6.131619e-02 3.887921e+01 1.000000e+02
6.245845e-02 5.043511e+01 1.000000e+02
6.362198e-02 6.282597e+01 1.000000e+02
6.480720e-02 7.575155e+01 1.000000e+02
6.601449e-02 8.911385e+01 1.000000e+02
6.724427e-02 1.030993e+02 1.000000e+02
6.849697e-02 1.182436e+02 1.000000e+02
6.977300e-02 1.355087e+02 1.000000e+02
7.107280e-02 1.562617e+02 1.000000e+02
7.239681e-02 1.813590e+02 1.000000e+02
7.374549e-02 2.113043e+02 1.000000e+02
7.511929e-02 2.465117e+02 1.000000e+02
7.651869e-02 2.872131e+02 1.000000e+02
7.794416e-02 3.333384e+02 1.000000e+02
7.939618e-02 3.843780e+02 1.000000e+02
8.087525e-02 4.392274e+02 1.000000e+02
8.238187e-02 4.958675e+02 1.000000e+02
8.391656e-02 5.512313e+02 1.000000e+02
8.547985e-02 6.013632e+02 1.000000e+02
8.707225e-02 6.416782e+02 1.000000e+02
8.869432e-02 6.674488e+02 1.000000e+02
9.034660e-02 6.745172e+02 1.000000e+02
9.202967e-02 6.634477e+02 1.000000e+02
9.374409e-02 6.433402e+02 1.000000e+02
9.549045e-02 6.238951e+02 1.000000e+02
9.726934e-02 6.138127e+02 1.000000e+02
9.908137e-02 6.214844e+02 1.000000e+02
1.009272e-01 6.565500e+02 1.000000e+02
1.028073e-01 7.243090e+02 1.000000e+02
1.047225e-01 8.244714e+02 1.000000e+02
1.066734e-01 9.562181e+02 1.000000e+02
1.086606e-01 1.115839e+03 1.000000e+02
1.106848e-01 1.293863e+03 1.000000e+02
1.127468e-01 1.481214e+03 1.000000e+02
1.148472e-01 1.678897e+03 1.000000e+02
1.169866e-01 1.890968e+03 1.000000e+02
1.191660e-01 2.124101e+03 1.000000e+02
1.213859e-01 2.387762e+03 1.000000e+02
1.236472e-01 2.688344e+03 1.000000e+02
1.259506e-01 3.028176e+03 1.000000e+02
1.282970e-01 3.408677e+03 1.000000e+02
1.306870e-01 3.830058e+03 1.000000e+02
1.331216e-01 4.291470e+03 1.000000e+02
1.356015e-01 4.791373e+03 1.000000e+02
1.381276e-01 5.326593e+03 1.000000e+02
1.407008e-01 5.892003e+03 1.000000e+02
1.433219e-01 6.488577e+03 1.000000e+02
1.459919e-01 7.134908e+03 1.000000e+02
1.487115e-01 7.859039e+03 1.000000e+02
1.514819e-01 8.698059e+03 1.000000e+02
1.543038e-01 9.675751e+03 1.000000e+02
1.571784e-01 1.079442e+04 1.000000e+02
1.601064e-01 1.204947e+04 1.000000e+02
1.630891e-01 1.343321e+04 1.000000e+02
1.661273e-01 1.495181e+04 1.000000e+02
1.692220e-01 1.661574e+04 1.000000e+02
1.723745e-01 1.843599e+04 1.000000e+02
1.755856e-01 2.042414e+04 1.000000e+02
1.788566e-01 2.259234e+04 1.000000e+02
1.821885e-01 2.495355e+04 1.000000e+02
1.855825e-01 2.752483e+04 1.000000e+02
1.890397e-01 3.032776e+04 1.000000e+02
1.925614e-01 3.338743e+04 1.000000e+02
1.961486e-01 3.673295e+04 1.000000e+02
1.998026e-01 4.039820e+04 1.000000e+02
2.035248e-01 4.442083e+04 1.000000e+02
2.073162e-01 4.883481e+04 1.000000e+02
2.111783e-01 5.367416e+04 1.000000e+02
2.151123e-01 5.897507e+04 1.000000e+02
2.191197e-01 6.477596e+04 1.000000e+02
2.232016e-01 7.111744e+04 1.000000e+02
2.273597e-01 7.804226e+04 1.000000e+02
2.315951e-01 8.559526e+04 1.000000e+02
2.359095e-01 9.382323e+04 1.000000e+02
2.403043e-01 1.027748e+05 1.000000e+02
2.447809e-01 1.125001e+05 1.000000e+02
2.493409e-01 1.230506e+05 1.000000e+02
2.539859e-01 1.344802e+05 1.000000e+02
2.587174e-01 1.468521e+05 1.000000e+02
2.635371e-01 1.602371e+05 1.000000e+02
2.684465e-01 1.747111e+05 1.000000e+02
2.734474e-01 1.903559e+05 1.000000e+02
2.785414e-01 2.072591e+05 1.000000e+02
2.837304e-01 2.255154e+05 1.000000e+02
2.890160e-01 2.452266e+05 1.000000e+02
2.944000e-01 2.665026e+05 1.000000e+02
2.998844e-01 2.894619e+05 1.000000e+02
3.054710e-01 3.142291e+05 1.000000e+02
3.111616e-01 3.409244e+05 1.000000e+02
3.169582e-01 3.696685e+05 1.000000e+02
3.228628e-01 4.005863e+05 1.000000e+02
3.288774e-01 4.338056e+05 1.000000e+02
3.350041e-01 4.694573e+05 1.000000e+02
3.412449e-01 5.076744e+05 1.000000e+02
3.476019e-01 5.485914e+05 1.000000e+02
3.540774e-01 5.923458e+05 1.000000e+02
3.606735e-01 6.391077e+05 1.000000e+02
3.673925e-01 6.890820e+05 1.000000e+02
3.742366e-01 7.424922e+05 1.000000e+02
3.812083e-01 7.995820e+05 1.000000e+02
3.883098e-01 8.606175e+05 1.000000e+02
3.955436e-01 9.258901e+05 1.000000e+02
4.029122e-01 9.957175e+05 1.000000e+02
4.104181e-01 1.070382e+06 1.000000e+02
4.180637e-01 1.150085e+06 1.000000e+02
4.258518e-01 1.235010e+06 1.000000e+02
4.337850e-01 1.325321e+06 1.000000e+02
4.418660e-01 1.421155e+06 1.000000e+02
4.500975e-01 1.522624e+06 1.000000e+02
4.584824e-01 1.629854e+06 1.000000e+02
4.670234e-01 1.743154e+06 1.000000e+02
4.757236e-01 1.862914e+06 1.000000e+02
4.845859e-01 1.989568e+06 1.000000e+02
4.936132e-01 2.123601e+06 1.000000e+02
5.028087e-01 2.265551e+06 1.000000e+02
5.121755e-01 2.415926e+06 1.000000e+02
5.217169e-01 2.575113e+06 1.000000e+02
5.314359e-01 2.743487e+06 1.000000e+02
5.413360e-01 2.921427e+06 1.000000e+02
5.514206e-01 3.109309e+06 1.000000e+02
5.616930e-01 3.307508e+06 1.000000e+02
5.721568e-01 3.516391e+06 1.000000e+02
5.828155e-01 3.736321e+06 1.000000e+02
5.936727e-01 3.967648e+06 1.000000e+02
6.047322e-01 4.210712e+06 1.000000e+02
6.159978e-01 4.465896e+06 1.000000e+02
6.274732e-01 4.733649e+06 1.000000e+02
6.391624e-01 5.014438e+06 1.000000e+02
6.510694e-01 5.308741e+06 1.000000e+02
6.631981e-01 5.617049e+06 1.000000e+02
6.755528e-01 5.939865e+06 1.000000e+02
6.881377e-01 6.277707e+06 1.000000e+02
7.009570e-01 6.631103e+06 1.000000e+02
7.140151e-01 7.000584e+06 1.000000e+02
7.273165e-01 7.386643e+06 1.000000e+02
7.408657e-01 7.789761e+06 1.000000e+02
7.546673e-01 8.210421e+06 1.000000e+02
7.687260e-01 8.649099e+06 1.000000e+02
7.830465e-01 9.106268e+06 1.000000e+02
7.976339e-01 9.582397e+06 1.000000e+02
8.124930e-01 1.007795e+07 1.000000e+02
8.276289e-01 1.059340e+07 1.000000e+02
8.430468e-01 1.112923e+07 1.000000e+02
8.587519e-01 1.168592e+07 1.000000e+02
8.747496e-01 1.226394e+07 1.000000e+02
8.910453e-01 1.286377e+07 1.000000e+02
9.076446e-01 1.348586e+07 1.000000e+02
9.245531e-01 1.413066e+07 1.000000e+02
9.417766e-01 1.479860e+07 1.000000e+02
9.593209e-01 1.549007e+07 1.000000e+02
9.771921e-01 1.620549e+07 1.000000e+02
9.953962e-01 1.694522e+07 1.000000e+02
1.013939e+00 1.770964e+07 1.000000e+02
1.032828e+00 1.849909e+07 1.000000e+02
1.052069e+00 1.931389e+07 1.000000e+02
1.071668e+00 2.015436e+07 1.000000e+02
1.091632e+00 2.102077e+07 1.000000e+02
1.111968e+00 2.191340e+07 1.000000e+02
1.132683e+00 2.283247e+07 1.000000e+02
1.153783e+00 2.377819e+07 1.000000e+02
1.175277e+00 2.475076e+07 1.000000e+02
1.197171e+00 2.575033e+07 1.000000e+02
1.219473e+00 2.677703e+07 1.000000e+02
1.242191e+00 2.783096e+07 1.000000e+02
1.265332e+00 2.891221e+07 1.000000e+02
1.288904e+00 3.002117e+07 1.000000e+02
1.312915e+00 3.115849e+07 1.000000e+02
1.337373e+00 3.232486e+07 1.000000e+02
1.362287e+00 3.352105e+07 1.000000e+02
1.387665e+00 3.474787e+07 1.000000e+02
1.413516e+00 3.600625e+07 1.000000e+02
1.439848e+00 3.729714e+07 1.000000e+02
1.466671e+00 3.862162e+07 1.000000e+02
1.493993e+00 3.998082e+07 1.000000e+02
1.521825e+00 4.137573e+07 1.000000e+02
1.550175e+00 4.280536e+07 1.000000e+02
1.579053e+00 4.426749e+07 1.000000e+02
1.608469e+00 4.575954e+07 1.000000e+02
1.638434e+00 4.727855e+07 1.000000e+02
1.668956e+00 4.882118e+07 1.000000e+02
1.700047e+00 5.038365e+07 1.000000e+02
1.731717e+00 5.196180e+07 1.000000e+02
1.763977e+00 5.355108e+07 1.000000e+02
1.796838e+00 5.514968e+07 1.000000e+02
1.830312e+00 5.675954e+07 1.000000e+02
1.864409e+00 5.838322e+07 1.000000e+02
1.899141e+00 6.002369e+07 1.000000e+02
1.934520e+00 6.168435e+07 1.000000e+02
1.970558e+00 6.336905e+07 1.000000e+02
2.007267e+00 6.508207e+07 1.000000e+02
2.044661e+00 6.682650e+07 1.000000e+02
2.082751e+00 6.860182e+07 1.000000e+02
2.121550e+00 7.040691e+07 1.000000e+02
2.161073e+00 7.224049e+07 1.000000e+02
2.201331e+00 7.410113e+07 1.000000e+02
2.242340e+00 7.598729e+07 1.000000e+02
2.284112e+00 7.789723e+07 1.000000e+02
2.326663e+00 7.982907e+07 1.000000e+02
2.370006e+00 8.178078e+07 1.000000e+02
2.414157e+00 8.375015e+07 1.000000e+02
2.459130e+00 8.573481e+07 1.000000e+02
2.504942e+00 8.773222e+07 1.000000e+02
2.551606e+00 8.974022e+07 1.000000e+02
2.599140e+00 9.175820e+07 1.000000e+02
2.647559e+00 9.378589e+07 1.000000e+02
2.696881e+00 9.582306e+07 1.000000e+02
2.747121e+00 9.786956e+07 1.000000e+02
2.798297e+00 9.992527e+07 1.000000e+02
2.850426e+00 1.019902e+08 1.000000e+02
2.903527e+00 1.040642e+08 1.000000e+02
2.957617e+00 1.061476e+08 1.000000e+02
3.012714e+00 1.082403e+08 1.000000e+02
3.068838e+00 1.103424e+08 1.000000e+02
3.126007e+00 1.124529e+08 1.000000e+02
3.184242e+00 1.145708e+08 1.000000e+02
3.243561e+00 1.166952e+08 1.000000e+02
3.303985e+00 1.188252e+08 1.000000e+02
3.365535e+00 1.209596e+08 1.000000e+02
3.428231e+00 1.230974e+08 1.000000e+02
3.492096e+00 1.252377e+08 1.000000e+02
3.557150e+00 1.273794e+08 1.000000e+02
3.623416e+00 1.295220e+08 1.000000e+02
3.690917e+00 1.316651e+08 1.000000e+02
3.759675e+00 1.338083e+08 1.000000e+02
3.829714e+00 1.359513e+08 1.000000e+02
3.901058e+00 1.380938e+08 1.000000e+02
3.973730e+00 1.402356e+08 1.000000e+02
4.047757e+00 1.423765e+08 1.000000e+02
4.123163e+00 1.445160e+08 1.000000e+02
4.199973e+00 1.466535e+08 1.000000e+02
4.278214e+00 1.487886e+08 1.000000e+02
4.357913e+00 1.509205e+08 1.000000e+02
4.439097e+00 1.530489e+08 1.000000e+02
4.521792e+00 1.551732e+08 1.000000e+02
4.606029e+00 1.572929e+08 1.000000e+02
4.691835e+00 1.594075e+08 1.000000e+02
4.779239e+00 1.615165e+08 1.000000e+02
4.868271e+00 1.636195e+08 1.000000e+02
4.958962e+00 1.657161e+08 1.000000e+02
5.051342e+00 1.678058e+08 1.000000e+02
5.145444e+00 1.698881e+08 1.000000e+02
5.241298e+00 1.719625e+08 1.000000e+02
5.338938e+00 1.740283e+08 1.000000e+02
5.438397e+00 1.760850e+08 1.000000e+02
5.539709e+00 1.781321e+08 1.000000e+02
5.642908e+00 1.801689e+08 1.000000e+02
5.748030e+00 1.821950e+08 1.000000e+02
5.855110e+00 1.842099e+08 1.000000e+02
5.964185e+00 1.862129e+08 1.000000e+02
6.075292e+00 1.882036e+08 1.000000e+02
6.188468e+00 1.901813e+08 1.000000e+02
6.303753e+00 1.921452e+08 1.000000e+02
6.421186e+00 1.940944e+08 1.000000e+02
6.540806e+00 1.960282e+08 1.000000e+02
6.662655e+00 1.979456e+08 1.000000e+02
6.786773e+00 1.998459e+08 1.000000e+02
6.913204e+00 2.017282e+08 1.000000e+02
7.041990e+00 2.035917e+08 1.000000e+02
7.173175e+00 2.054355e+08 1.000000e+02
7.306804e+00 2.072582e+08 1.000000e+02
7.442922e+00 2.090586e+08 1.000000e+02
7.581576e+00 2.108354e+08 1.000000e+02
7.722814e+00 2.125872e+08 1.000000e+02
7.866682e+00 2.143128e+08 1.000000e+02
8.013230e+00 2.160109e+08 1.000000e+02
8.162509e+00 2.176799e+08 1.000000e+02
8.314568e+00 2.193182e+08 1.000000e+02
8.469460e+00 2.209242e+08 1.000000e+02
8.627237e+00 2.224960e+08 1.000000e+02
8.787954e+00 2.240320e+08 1.000000e+02
8.951665e+00 2.255302e+08 1.000000e+02
9.118425e+00 2.269891e+08 1.000000e+02
9.288292e+00 2.284067e+08 1.000000e+02
9.461324e+00 2.297814e+08 1.000000e+02
9.637579e+00 2.311114e+08 1.000000e+02
9.817117e+00 2.323948e+08 1.000000e+02
1.000000e+01 2.336300e+08 1.000000e+02
