# Be10 + d > B11 + n   [Be10_d__B11_n]   ref=TALYS2
# detailed balance: alpha=0.91786 beta=0 gamma=-104.478  Q=9.0032
# T9                 rate                error
1.000000e-03 1.000000e-35 1.000000e+02
1.018629e-03 1.075969e-35 1.000000e+02
1.037605e-03 1.161513e-35 1.000000e+02
1.056935e-03 1.258071e-35 1.000000e+02
1.076624e-03 1.367335e-35 1.000000e+02
1.096681e-03 1.491300e-35 1.000000e+02
1.117111e-03 1.632326e-35 1.000000e+02
1.137921e-03 1.793217e-35 1.000000e+02
1.159120e-03 1.977307e-35 1.000000e+02
1.180713e-03 2.188582e-35 1.000000e+02
1.202708e-03 2.431815e-35 1.000000e+02
1.225114e-03 2.712747e-35 1.000000e+02
1.247936e-03 3.038299e-35 1.000000e+02
1.271184e-03 3.416853e-35 1.000000e+02
1.294865e-03 3.858586e-35 1.000000e+02
1.318987e-03 4.375907e-35 1.000000e+02
1.343558e-03 4.983995e-35 1.000000e+02
1.368587e-03 5.701494e-35 1.000000e+02
1.394083e-03 6.551384e-35 1.000000e+02
1.420053e-03 7.562100e-35 1.000000e+02
1.446507e-03 8.768970e-35 1.000000e+02
1.473454e-03 1.021606e-34 1.000000e+02
1.500903e-03 1.195855e-34 1.000000e+02
1.528864e-03 1.406584e-34 1.000000e+02
1.557345e-03 1.662557e-34 1.000000e+02
1.586357e-03 1.974892e-34 1.000000e+02
1.615909e-03 2.357749e-34 1.000000e+02
1.646012e-03 2.829247e-34 1.000000e+02
1.676675e-03 3.412677e-34 1.000000e+02
1.707910e-03 4.138111e-34 1.000000e+02
1.739726e-03 5.044564e-34 1.000000e+02
1.772136e-03 6.182889e-34 1.000000e+02
1.805149e-03 7.619690e-34 1.000000e+02
1.838777e-03 9.442629e-34 1.000000e+02
1.873032e-03 1.176766e-33 1.000000e+02
1.907924e-03 1.474894e-33 1.000000e+02
1.943467e-03 1.859244e-33 1.000000e+02
1.979672e-03 2.357485e-33 1.000000e+02
2.016551e-03 3.006978e-33 1.000000e+02
2.054117e-03 3.858441e-33 1.000000e+02
2.092383e-03 4.981105e-33 1.000000e+02
2.131362e-03 6.469988e-33 1.000000e+02
2.171068e-03 8.456235e-33 1.000000e+02
2.211512e-03 1.112188e-32 1.000000e+02
2.252711e-03 1.472104e-32 1.000000e+02
2.294676e-03 1.961055e-32 1.000000e+02
2.337424e-03 2.629444e-32 1.000000e+02
2.380968e-03 3.548892e-32 1.000000e+02
2.425323e-03 4.821786e-32 1.000000e+02
2.470504e-03 6.595400e-32 1.000000e+02
2.516527e-03 9.082896e-32 1.000000e+02
2.563407e-03 1.259474e-31 1.000000e+02
2.611161e-03 1.758601e-31 1.000000e+02
2.659804e-03 2.472810e-31 1.000000e+02
2.709354e-03 3.501799e-31 1.000000e+02
2.759826e-03 4.994597e-31 1.000000e+02
2.811239e-03 7.175466e-31 1.000000e+02
2.863610e-03 1.038418e-30 1.000000e+02
2.916956e-03 1.513903e-30 1.000000e+02
2.971296e-03 2.223617e-30 1.000000e+02
3.026648e-03 3.290819e-30 1.000000e+02
3.083031e-03 4.911908e-30 1.000000e+02
3.140465e-03 7.408195e-30 1.000000e+02
3.198969e-03 1.131159e-29 1.000000e+02
3.258562e-03 1.751929e-29 1.000000e+02
3.319266e-03 2.757553e-29 1.000000e+02
3.381101e-03 4.419559e-29 1.000000e+02
3.444087e-03 7.226272e-29 1.000000e+02
3.508247e-03 1.207711e-28 1.000000e+02
3.573602e-03 2.067081e-28 1.000000e+02
3.640175e-03 3.630205e-28 1.000000e+02
3.707988e-03 6.554152e-28 1.000000e+02
3.777064e-03 1.218840e-27 1.000000e+02
3.847427e-03 2.339129e-27 1.000000e+02
3.919100e-03 4.641647e-27 1.000000e+02
3.992109e-03 9.541865e-27 1.000000e+02
4.066478e-03 2.033735e-26 1.000000e+02
4.142232e-03 4.470746e-26 1.000000e+02
4.219398e-03 1.006263e-25 1.000000e+02
4.298001e-03 2.302018e-25 1.000000e+02
4.378069e-03 5.313636e-25 1.000000e+02
4.459628e-03 1.228516e-24 1.000000e+02
4.542706e-03 2.824206e-24 1.000000e+02
4.627332e-03 6.408525e-24 1.000000e+02
4.713535e-03 1.424906e-23 1.000000e+02
4.801343e-03 3.081775e-23 1.000000e+02
4.890787e-03 6.436094e-23 1.000000e+02
4.981898e-03 1.288459e-22 1.000000e+02
5.074705e-03 2.457621e-22 1.000000e+02
5.169242e-03 4.480605e-22 1.000000e+02
5.265540e-03 7.864993e-22 1.000000e+02
5.363631e-03 1.338968e-21 1.000000e+02
5.463550e-03 2.227014e-21 1.000000e+02
5.565331e-03 3.645246e-21 1.000000e+02
5.669007e-03 5.914964e-21 1.000000e+02
5.774615e-03 9.584496e-21 1.000000e+02
5.882190e-03 1.562244e-20 1.000000e+02
5.991770e-03 2.580245e-20 1.000000e+02
6.103390e-03 4.344192e-20 1.000000e+02
6.217090e-03 7.451730e-20 1.000000e+02
6.332908e-03 1.298924e-19 1.000000e+02
6.450884e-03 2.294918e-19 1.000000e+02
6.571058e-03 4.099069e-19 1.000000e+02
6.693470e-03 7.382717e-19 1.000000e+02
6.818162e-03 1.337329e-18 1.000000e+02
6.945178e-03 2.430129e-18 1.000000e+02
7.074559e-03 4.418798e-18 1.000000e+02
7.206351e-03 8.031219e-18 1.000000e+02
7.340598e-03 1.459078e-17 1.000000e+02
7.477346e-03 2.649887e-17 1.000000e+02
7.616642e-03 4.811273e-17 1.000000e+02
7.758532e-03 8.733903e-17 1.000000e+02
7.903066e-03 1.585275e-16 1.000000e+02
8.050292e-03 2.877299e-16 1.000000e+02
8.200261e-03 5.225522e-16 1.000000e+02
8.353023e-03 9.510227e-16 1.000000e+02
8.508632e-03 1.737209e-15 1.000000e+02
8.667139e-03 3.190042e-15 1.000000e+02
8.828599e-03 5.898040e-15 1.000000e+02
8.993067e-03 1.099687e-14 1.000000e+02
9.160598e-03 2.067294e-14 1.000000e+02
9.331251e-03 3.886631e-14 1.000000e+02
9.505083e-03 7.232181e-14 1.000000e+02
9.682153e-03 1.318189e-13 1.000000e+02
9.862522e-03 2.329087e-13 1.000000e+02
1.004625e-02 3.948275e-13 1.000000e+02
1.023340e-02 6.403513e-13 1.000000e+02
1.042404e-02 1.005373e-12 1.000000e+02
1.061823e-02 1.548714e-12 1.000000e+02
1.081604e-02 2.372392e-12 1.000000e+02
1.101753e-02 3.662765e-12 1.000000e+02
1.122277e-02 5.754969e-12 1.000000e+02
1.143184e-02 9.184261e-12 1.000000e+02
1.164481e-02 1.482502e-11 1.000000e+02
1.186174e-02 2.410342e-11 1.000000e+02
1.208271e-02 3.930947e-11 1.000000e+02
1.230780e-02 6.417603e-11 1.000000e+02
1.253708e-02 1.049817e-10 1.000000e+02
1.277063e-02 1.722751e-10 1.000000e+02
1.300854e-02 2.839250e-10 1.000000e+02
1.325087e-02 4.703563e-10 1.000000e+02
1.349772e-02 7.830398e-10 1.000000e+02
1.374917e-02 1.309357e-09 1.000000e+02
1.400531e-02 2.198028e-09 1.000000e+02
1.426621e-02 3.702761e-09 1.000000e+02
1.453198e-02 6.258559e-09 1.000000e+02
1.480269e-02 1.061322e-08 1.000000e+02
1.507845e-02 1.805561e-08 1.000000e+02
1.535935e-02 3.081216e-08 1.000000e+02
1.564548e-02 5.273559e-08 1.000000e+02
1.593694e-02 9.050691e-08 1.000000e+02
1.623382e-02 1.557300e-07 1.000000e+02
1.653624e-02 2.685553e-07 1.000000e+02
1.684430e-02 4.639769e-07 1.000000e+02
1.715809e-02 8.027694e-07 1.000000e+02
1.747773e-02 1.390425e-06 1.000000e+02
1.780332e-02 2.409889e-06 1.000000e+02
1.813498e-02 4.178031e-06 1.000000e+02
1.847281e-02 7.244010e-06 1.000000e+02
1.881694e-02 1.256097e-05 1.000000e+02
1.916748e-02 2.178283e-05 1.000000e+02
1.952456e-02 3.778009e-05 1.000000e+02
1.988828e-02 6.553589e-05 1.000000e+02
2.025878e-02 1.136955e-04 1.000000e+02
2.063618e-02 1.971169e-04 1.000000e+02
2.102061e-02 3.411165e-04 1.000000e+02
2.141220e-02 5.885178e-04 1.000000e+02
2.181109e-02 1.011053e-03 1.000000e+02
2.221741e-02 1.727531e-03 1.000000e+02
2.263130e-02 2.932208e-03 1.000000e+02
2.305289e-02 4.938105e-03 1.000000e+02
2.348235e-02 8.241423e-03 1.000000e+02
2.391980e-02 1.361445e-02 1.000000e+02
2.436540e-02 2.223482e-02 1.000000e+02
2.481930e-02 3.585772e-02 1.000000e+02
2.528166e-02 5.703860e-02 1.000000e+02
2.575263e-02 8.952178e-02 1.000000e+02
2.623238e-02 1.388236e-01 1.000000e+02
2.672106e-02 2.130025e-01 1.000000e+02
2.721885e-02 3.238214e-01 1.000000e+02
2.772591e-02 4.884703e-01 1.000000e+02
2.824241e-02 7.321412e-01 1.000000e+02
2.876854e-02 1.091913e+00 1.000000e+02
2.930447e-02 1.622670e+00 1.000000e+02
2.985038e-02 2.406210e+00 1.000000e+02
3.040646e-02 3.563487e+00 1.000000e+02
3.097291e-02 5.248481e+00 1.000000e+02
3.154990e-02 7.634649e+00 1.000000e+02
3.213764e-02 1.089205e+01 1.000000e+02
3.273634e-02 1.513434e+01 1.000000e+02
3.334618e-02 2.033849e+01 1.000000e+02
3.396739e-02 2.625084e+01 1.000000e+02
3.460016e-02 3.231510e+01 1.000000e+02
3.524473e-02 3.767675e+01 1.000000e+02
3.590130e-02 4.131571e+01 1.000000e+02
3.657011e-02 4.231544e+01 1.000000e+02
3.725137e-02 4.019691e+01 1.000000e+02
3.794533e-02 3.516937e+01 1.000000e+02
3.865221e-02 2.814380e+01 1.000000e+02
3.937226e-02 2.045575e+01 1.000000e+02
4.010573e-02 1.341024e+01 1.000000e+02
4.085286e-02 7.930836e+00 1.000000e+02
4.161391e-02 4.311831e+00 1.000000e+02
4.238913e-02 2.202826e+00 1.000000e+02
4.317880e-02 1.080910e+00 1.000000e+02
4.398317e-02 5.207209e-01 1.000000e+02
4.480254e-02 2.517341e-01 1.000000e+02
4.563716e-02 1.248291e-01 1.000000e+02
4.648734e-02 6.489952e-02 1.000000e+02
4.735335e-02 3.616052e-02 1.000000e+02
4.823549e-02 2.207041e-02 1.000000e+02
4.913407e-02 1.508287e-02 1.000000e+02
5.004939e-02 1.179696e-02 1.000000e+02
5.098176e-02 1.070508e-02 1.000000e+02
5.193150e-02 1.110739e-02 1.000000e+02
5.289893e-02 1.290917e-02 1.000000e+02
5.388438e-02 1.646304e-02 1.000000e+02
5.488820e-02 2.256880e-02 1.000000e+02
5.591071e-02 3.258032e-02 1.000000e+02
5.695227e-02 4.851897e-02 1.000000e+02
5.801323e-02 7.301950e-02 1.000000e+02
5.909396e-02 1.087924e-01 1.000000e+02
6.019482e-02 1.572035e-01 1.000000e+02
6.131619e-02 2.173874e-01 1.000000e+02
6.245845e-02 2.888041e-01 1.000000e+02
6.362198e-02 3.709817e-01 1.000000e+02
6.480720e-02 4.637297e-01 1.000000e+02
6.601449e-02 5.677062e-01 1.000000e+02
6.724427e-02 6.850336e-01 1.000000e+02
6.849697e-02 8.199980e-01 1.000000e+02
6.977300e-02 9.799627e-01 1.000000e+02
7.107280e-02 1.175819e+00 1.000000e+02
7.239681e-02 1.416719e+00 1.000000e+02
7.374549e-02 1.710523e+00 1.000000e+02
7.511929e-02 2.065198e+00 1.000000e+02
7.651869e-02 2.488103e+00 1.000000e+02
7.794416e-02 2.984937e+00 1.000000e+02
7.939618e-02 3.558345e+00 1.000000e+02
8.087525e-02 4.206029e+00 1.000000e+02
8.238187e-02 4.915295e+00 1.000000e+02
8.391656e-02 5.659337e+00 1.000000e+02
8.547985e-02 6.397328e+00 1.000000e+02
8.707225e-02 7.075014e+00 1.000000e+02
8.869432e-02 7.628342e+00 1.000000e+02
9.034660e-02 7.990928e+00 1.000000e+02
9.202967e-02 8.145651e+00 1.000000e+02
9.374409e-02 8.183240e+00 1.000000e+02
9.549045e-02 8.217490e+00 1.000000e+02
9.726934e-02 8.365869e+00 1.000000e+02
9.908137e-02 8.757584e+00 1.000000e+02
1.009272e-01 9.555707e+00 1.000000e+02
1.028073e-01 1.087771e+01 1.000000e+02
1.047225e-01 1.276692e+01 1.000000e+02
1.066734e-01 1.525974e+01 1.000000e+02
1.086606e-01 1.834674e+01 1.000000e+02
1.106848e-01 2.191812e+01 1.000000e+02
1.127468e-01 2.585385e+01 1.000000e+02
1.148472e-01 3.019336e+01 1.000000e+02
1.169866e-01 3.503358e+01 1.000000e+02
1.191660e-01 4.052909e+01 1.000000e+02
1.213859e-01 4.690296e+01 1.000000e+02
1.236472e-01 5.434044e+01 1.000000e+02
1.259506e-01 6.296112e+01 1.000000e+02
1.282970e-01 7.287305e+01 1.000000e+02
1.306870e-01 8.416390e+01 1.000000e+02
1.331216e-01 9.689152e+01 1.000000e+02
1.356015e-01 1.110745e+02 1.000000e+02
1.381276e-01 1.266725e+02 1.000000e+02
1.407008e-01 1.435714e+02 1.000000e+02
1.433219e-01 1.618286e+02 1.000000e+02
1.459919e-01 1.820651e+02 1.000000e+02
1.487115e-01 2.052596e+02 1.000000e+02
1.514819e-01 2.327730e+02 1.000000e+02
1.543038e-01 2.656364e+02 1.000000e+02
1.571784e-01 3.042204e+02 1.000000e+02
1.601064e-01 3.486620e+02 1.000000e+02
1.630891e-01 3.989664e+02 1.000000e+02
1.661273e-01 4.556271e+02 1.000000e+02
1.692220e-01 5.193209e+02 1.000000e+02
1.723745e-01 5.907807e+02 1.000000e+02
1.755856e-01 6.707995e+02 1.000000e+02
1.788566e-01 7.602324e+02 1.000000e+02
1.821885e-01 8.600112e+02 1.000000e+02
1.855825e-01 9.712892e+02 1.000000e+02
1.890397e-01 1.095484e+03 1.000000e+02
1.925614e-01 1.234251e+03 1.000000e+02
1.961486e-01 1.389532e+03 1.000000e+02
1.998026e-01 1.563609e+03 1.000000e+02
2.035248e-01 1.759085e+03 1.000000e+02
2.073162e-01 1.978542e+03 1.000000e+02
2.111783e-01 2.224708e+03 1.000000e+02
2.151123e-01 2.500571e+03 1.000000e+02
2.191197e-01 2.809400e+03 1.000000e+02
2.232016e-01 3.154756e+03 1.000000e+02
2.273597e-01 3.540504e+03 1.000000e+02
2.315951e-01 3.970831e+03 1.000000e+02
2.359095e-01 4.450245e+03 1.000000e+02
2.403043e-01 4.983590e+03 1.000000e+02
2.447809e-01 5.576043e+03 1.000000e+02
2.493409e-01 6.233111e+03 1.000000e+02
2.539859e-01 6.960703e+03 1.000000e+02
2.587174e-01 7.765624e+03 1.000000e+02
2.635371e-01 8.655499e+03 1.000000e+02
2.684465e-01 9.638684e+03 1.000000e+02
2.734474e-01 1.072434e+04 1.000000e+02
2.785414e-01 1.192253e+04 1.000000e+02
2.837304e-01 1.324428e+04 1.000000e+02
2.890160e-01 1.470170e+04 1.000000e+02
2.944000e-01 1.630813e+04 1.000000e+02
2.998844e-01 1.807819e+04 1.000000e+02
3.054710e-01 2.002776e+04 1.000000e+02
3.111616e-01 2.217309e+04 1.000000e+02
3.169582e-01 2.453126e+04 1.000000e+02
3.228628e-01 2.712048e+04 1.000000e+02
3.288774e-01 2.996004e+04 1.000000e+02
3.350041e-01 3.307034e+04 1.000000e+02
3.412449e-01 3.647286e+04 1.000000e+02
3.476019e-01 4.019016e+04 1.000000e+02
3.540774e-01 4.424600e+04 1.000000e+02
3.606735e-01 4.866828e+04 1.000000e+02
3.673925e-01 5.348949e+04 1.000000e+02
3.742366e-01 5.874553e+04 1.000000e+02
3.812083e-01 6.447603e+04 1.000000e+02
3.883098e-01 7.072487e+04 1.000000e+02
3.955436e-01 7.754071e+04 1.000000e+02
4.029122e-01 8.497742e+04 1.000000e+02
4.104181e-01 9.308773e+04 1.000000e+02
4.180637e-01 1.019180e+05 1.000000e+02
4.258518e-01 1.115143e+05 1.000000e+02
4.337850e-01 1.219221e+05 1.000000e+02
4.418660e-01 1.331859e+05 1.000000e+02
4.500975e-01 1.453481e+05 1.000000e+02
4.584824e-01 1.584544e+05 1.000000e+02
4.670234e-01 1.725745e+05 1.000000e+02
4.757236e-01 1.877914e+05 1.000000e+02
4.845859e-01 2.041977e+05 1.000000e+02
4.936132e-01 2.218971e+05 1.000000e+02
5.028087e-01 2.410056e+05 1.000000e+02
5.121755e-01 2.616408e+05 1.000000e+02
5.217169e-01 2.839094e+05 1.000000e+02
5.314359e-01 3.079212e+05 1.000000e+02
5.413360e-01 3.337911e+05 1.000000e+02
5.514206e-01 3.616387e+05 1.000000e+02
5.616930e-01 3.915883e+05 1.000000e+02
5.721568e-01 4.237687e+05 1.000000e+02
5.828155e-01 4.583128e+05 1.000000e+02
5.936727e-01 4.953576e+05 1.000000e+02
6.047322e-01 5.350438e+05 1.000000e+02
6.159978e-01 5.775242e+05 1.000000e+02
6.274732e-01 6.229690e+05 1.000000e+02
6.391624e-01 6.715584e+05 1.000000e+02
6.510694e-01 7.234822e+05 1.000000e+02
6.631981e-01 7.789403e+05 1.000000e+02
6.755528e-01 8.381436e+05 1.000000e+02
6.881377e-01 9.013142e+05 1.000000e+02
7.009570e-01 9.686862e+05 1.000000e+02
7.140151e-01 1.040504e+06 1.000000e+02
7.273165e-01 1.117013e+06 1.000000e+02
7.408657e-01 1.198470e+06 1.000000e+02
7.546673e-01 1.285140e+06 1.000000e+02
7.687260e-01 1.377297e+06 1.000000e+02
7.830465e-01 1.475227e+06 1.000000e+02
7.976339e-01 1.579225e+06 1.000000e+02
8.124930e-01 1.689599e+06 1.000000e+02
8.276289e-01 1.806669e+06 1.000000e+02
8.430468e-01 1.930773e+06 1.000000e+02
8.587519e-01 2.062259e+06 1.000000e+02
8.747496e-01 2.201491e+06 1.000000e+02
8.910453e-01 2.348843e+06 1.000000e+02
9.076446e-01 2.504705e+06 1.000000e+02
9.245531e-01 2.669473e+06 1.000000e+02
9.417766e-01 2.843553e+06 1.000000e+02
9.593209e-01 3.027357e+06 1.000000e+02
9.771921e-01 3.221314e+06 1.000000e+02
9.953962e-01 3.425858e+06 1.000000e+02
1.013939e+00 3.641436e+06 1.000000e+02
1.032828e+00 3.868514e+06 1.000000e+02
1.052069e+00 4.107567e+06 1.000000e+02
1.071668e+00 4.359087e+06 1.000000e+02
1.091632e+00 4.623576e+06 1.000000e+02
1.111968e+00 4.901546e+06 1.000000e+02
1.132683e+00 5.193523e+06 1.000000e+02
1.153783e+00 5.500043e+06 1.000000e+02
1.175277e+00 5.821653e+06 1.000000e+02
1.197171e+00 6.158912e+06 1.000000e+02
1.219473e+00 6.512388e+06 1.000000e+02
1.242191e+00 6.882660e+06 1.000000e+02
1.265332e+00 7.270324e+06 1.000000e+02
1.288904e+00 7.676075e+06 1.000000e+02
1.312915e+00 8.100703e+06 1.000000e+02
1.337373e+00 8.545042e+06 1.000000e+02
1.362287e+00 9.009978e+06 1.000000e+02
1.387665e+00 9.496451e+06 1.000000e+02
1.413516e+00 1.000546e+07 1.000000e+02
1.439848e+00 1.053806e+07 1.000000e+02
1.466671e+00 1.109539e+07 1.000000e+02
1.493993e+00 1.167865e+07 1.000000e+02
1.521825e+00 1.228904e+07 1.000000e+02
1.550175e+00 1.292707e+07 1.000000e+02
1.579053e+00 1.359283e+07 1.000000e+02
1.608469e+00 1.428623e+07 1.000000e+02
1.638434e+00 1.500700e+07 1.000000e+02
1.668956e+00 1.575465e+07 1.000000e+02
1.700047e+00 1.652848e+07 1.000000e+02
1.731717e+00 1.732754e+07 1.000000e+02
1.763977e+00 1.815063e+07 1.000000e+02
1.796838e+00 1.899757e+07 1.000000e+02
1.830312e+00 1.986972e+07 1.000000e+02
1.864409e+00 2.076877e+07 1.000000e+02
1.899141e+00 2.169666e+07 1.000000e+02
1.934520e+00 2.265562e+07 1.000000e+02
1.970558e+00 2.364819e+07 1.000000e+02
2.007267e+00 2.467724e+07 1.000000e+02
2.044661e+00 2.574521e+07 1.000000e+02
2.082751e+00 2.685296e+07 1.000000e+02
2.121550e+00 2.800105e+07 1.000000e+02
2.161073e+00 2.918996e+07 1.000000e+02
2.201331e+00 3.042007e+07 1.000000e+02
2.242340e+00 3.169166e+07 1.000000e+02
2.284112e+00 3.300490e+07 1.000000e+02
2.326663e+00 3.435983e+07 1.000000e+02
2.370006e+00 3.575636e+07 1.000000e+02
2.414157e+00 3.719427e+07 1.000000e+02
2.459130e+00 3.867315e+07 1.000000e+02
2.504942e+00 4.019245e+07 1.000000e+02
2.551606e+00 4.175174e+07 1.000000e+02
2.599140e+00 4.335135e+07 1.000000e+02
2.647559e+00 4.499176e+07 1.000000e+02
2.696881e+00 4.667349e+07 1.000000e+02
2.747121e+00 4.839705e+07 1.000000e+02
2.798297e+00 5.016297e+07 1.000000e+02
2.850426e+00 5.197181e+07 1.000000e+02
2.903527e+00 5.382415e+07 1.000000e+02
2.957617e+00 5.572059e+07 1.000000e+02
3.012714e+00 5.766175e+07 1.000000e+02
3.068838e+00 5.964809e+07 1.000000e+02
3.126007e+00 6.167964e+07 1.000000e+02
3.184242e+00 6.375632e+07 1.000000e+02
3.243561e+00 6.587798e+07 1.000000e+02
3.303985e+00 6.804442e+07 1.000000e+02
3.365535e+00 7.025538e+07 1.000000e+02
3.428231e+00 7.251052e+07 1.000000e+02
3.492096e+00 7.480942e+07 1.000000e+02
3.557150e+00 7.715166e+07 1.000000e+02
3.623416e+00 7.953689e+07 1.000000e+02
3.690917e+00 8.196481e+07 1.000000e+02
3.759675e+00 8.443508e+07 1.000000e+02
3.829714e+00 8.694730e+07 1.000000e+02
3.901058e+00 8.950104e+07 1.000000e+02
3.973730e+00 9.209585e+07 1.000000e+02
4.047757e+00 9.473120e+07 1.000000e+02
4.123163e+00 9.740647e+07 1.000000e+02
4.199973e+00 1.001209e+08 1.000000e+02
4.278214e+00 1.028738e+08 1.000000e+02
4.357913e+00 1.056643e+08 1.000000e+02
4.439097e+00 1.084915e+08 1.000000e+02
4.521792e+00 1.113545e+08 1.000000e+02
4.606029e+00 1.142522e+08 1.000000e+02
4.691835e+00 1.171837e+08 1.000000e+02
4.779239e+00 1.201478e+08 1.000000e+02
4.868271e+00 1.231435e+08 1.000000e+02
4.958962e+00 1.261694e+08 1.000000e+02
5.051342e+00 1.292244e+08 1.000000e+02
5.145444e+00 1.323070e+08 1.000000e+02
5.241298e+00 1.354155e+08 1.000000e+02
5.338938e+00 1.385483e+08 1.000000e+02
5.438397e+00 1.417035e+08 1.000000e+02
5.539709e+00 1.448792e+08 1.000000e+02
5.642908e+00 1.480735e+08 1.000000e+02
5.748030e+00 1.512844e+08 1.000000e+02
5.855110e+00 1.545098e+08 1.000000e+02
5.964185e+00 1.577475e+08 1.000000e+02
6.075292e+00 1.609953e+08 1.000000e+02
6.188468e+00 1.642507e+08 1.000000e+02
6.303753e+00 1.675109e+08 1.000000e+02
6.421186e+00 1.707733e+08 1.000000e+02
6.540806e+00 1.740350e+08 1.000000e+02
6.662655e+00 1.772930e+08 1.000000e+02
6.786773e+00 1.805444e+08 1.000000e+02
6.913204e+00 1.837859e+08 1.000000e+02
7.041990e+00 1.870145e+08 1.000000e+02
7.173175e+00 1.902268e+08 1.000000e+02
7.306804e+00 1.934189e+08 1.000000e+02
7.442922e+00 1.965871e+08 1.000000e+02
7.581576e+00 1.997273e+08 1.000000e+02
7.722814e+00 2.028356e+08 1.000000e+02
7.866682e+00 2.059078e+08 1.000000e+02
8.013230e+00 2.089397e+08 1.000000e+02
8.162509e+00 2.119270e+08 1.000000e+02
8.314568e+00 2.148647e+08 1.000000e+02
8.469460e+00 2.177480e+08 1.000000e+02
8.627237e+00 2.205717e+08 1.000000e+02
8.787954e+00 2.233305e+08 1.000000e+02
8.951665e+00 2.260194e+08 1.000000e+02
9.118425e+00 2.286332e+08 1.000000e+02
9.288292e+00 2.311664e+08 1.000000e+02
9.461324e+00 2.336140e+08 1.000000e+02
9.637579e+00 2.359706e+08 1.000000e+02
9.817117e+00 2.382310e+08 1.000000e+02
1.000000e+01 2.403900e+08 1.000000e+02
