# Be11 + p > Be9 + t   [Be11_p__Be9_t]   ref=TALYS2
# detailed balance: alpha=0.13062 beta=0 gamma=-13.5527  Q=1.1656
# T9                 rate                error
1.000000e-03 1.000000e-35 1.000000e+02
1.018629e-03 1.081468e-35 1.000000e+02
1.037605e-03 1.173321e-35 1.000000e+02
1.056935e-03 1.277164e-35 1.000000e+02
1.076624e-03 1.394893e-35 1.000000e+02
1.096681e-03 1.528751e-35 1.000000e+02
1.117111e-03 1.681405e-35 1.000000e+02
1.137921e-03 1.856028e-35 1.000000e+02
1.159120e-03 2.056417e-35 1.000000e+02
1.180713e-03 2.287125e-35 1.000000e+02
1.202708e-03 2.553632e-35 1.000000e+02
1.225114e-03 2.862553e-35 1.000000e+02
1.247936e-03 3.221910e-35 1.000000e+02
1.271184e-03 3.641459e-35 1.000000e+02
1.294865e-03 4.133112e-35 1.000000e+02
1.318987e-03 4.711466e-35 1.000000e+02
1.343558e-03 5.394481e-35 1.000000e+02
1.368587e-03 6.204340e-35 1.000000e+02
1.394083e-03 7.168549e-35 1.000000e+02
1.420053e-03 8.321360e-35 1.000000e+02
1.446507e-03 9.705597e-35 1.000000e+02
1.473454e-03 1.137503e-34 1.000000e+02
1.500903e-03 1.339747e-34 1.000000e+02
1.528864e-03 1.585881e-34 1.000000e+02
1.557345e-03 1.886833e-34 1.000000e+02
1.586357e-03 2.256570e-34 1.000000e+02
1.615909e-03 2.713027e-34 1.000000e+02
1.646012e-03 3.279345e-34 1.000000e+02
1.676675e-03 3.985523e-34 1.000000e+02
1.707910e-03 4.870642e-34 1.000000e+02
1.739726e-03 5.985871e-34 1.000000e+02
1.772136e-03 7.398544e-34 1.000000e+02
1.805149e-03 9.197725e-34 1.000000e+02
1.838777e-03 1.150184e-33 1.000000e+02
1.873032e-03 1.446921e-33 1.000000e+02
1.907924e-03 1.831260e-33 1.000000e+02
1.943467e-03 2.331959e-33 1.000000e+02
1.979672e-03 2.988096e-33 1.000000e+02
2.016551e-03 3.853087e-33 1.000000e+02
2.054117e-03 5.000357e-33 1.000000e+02
2.092383e-03 6.531439e-33 1.000000e+02
2.131362e-03 8.587561e-33 1.000000e+02
2.171068e-03 1.136636e-32 1.000000e+02
2.211512e-03 1.514612e-32 1.000000e+02
2.252711e-03 2.032108e-32 1.000000e+02
2.294676e-03 2.745336e-32 1.000000e+02
2.337424e-03 3.734953e-32 1.000000e+02
2.380968e-03 5.117444e-32 1.000000e+02
2.425323e-03 7.062148e-32 1.000000e+02
2.470504e-03 9.816892e-32 1.000000e+02
2.516527e-03 1.374682e-31 1.000000e+02
2.563407e-03 1.939361e-31 1.000000e+02
2.611161e-03 2.756648e-31 1.000000e+02
2.659804e-03 3.948275e-31 1.000000e+02
2.709354e-03 5.698684e-31 1.000000e+02
2.759826e-03 8.289349e-31 1.000000e+02
2.811239e-03 1.215297e-30 1.000000e+02
2.863610e-03 1.795966e-30 1.000000e+02
2.916956e-03 2.675499e-30 1.000000e+02
2.971296e-03 4.018283e-30 1.000000e+02
3.026648e-03 6.084955e-30 1.000000e+02
3.083031e-03 9.300157e-30 1.000000e+02
3.140465e-03 1.437399e-29 1.000000e+02
3.198969e-03 2.251001e-29 1.000000e+02
3.258562e-03 3.578845e-29 1.000000e+02
3.319266e-03 5.788105e-29 1.000000e+02
3.381101e-03 9.541434e-29 1.000000e+02
3.444087e-03 1.606320e-28 1.000000e+02
3.508247e-03 2.767253e-28 1.000000e+02
3.573602e-03 4.887892e-28 1.000000e+02
3.640175e-03 8.869676e-28 1.000000e+02
3.707988e-03 1.656779e-27 1.000000e+02
3.777064e-03 3.191902e-27 1.000000e+02
3.847427e-03 6.355067e-27 1.000000e+02
3.919100e-03 1.310188e-26 1.000000e+02
3.992109e-03 2.802512e-26 1.000000e+02
4.066478e-03 6.224981e-26 1.000000e+02
4.142232e-03 1.428311e-25 1.000000e+02
4.219398e-03 3.360522e-25 1.000000e+02
4.298001e-03 8.048094e-25 1.000000e+02
4.378069e-03 1.947537e-24 1.000000e+02
4.459628e-03 4.727031e-24 1.000000e+02
4.542706e-03 1.142365e-23 1.000000e+02
4.627332e-03 2.728594e-23 1.000000e+02
4.713535e-03 6.394315e-23 1.000000e+02
4.801343e-03 1.459399e-22 1.000000e+02
4.890787e-03 3.220199e-22 1.000000e+02
4.981898e-03 6.819046e-22 1.000000e+02
5.074705e-03 1.377374e-21 1.000000e+02
5.169242e-03 2.662254e-21 1.000000e+02
5.265540e-03 4.960064e-21 1.000000e+02
5.363631e-03 8.973115e-21 1.000000e+02
5.463550e-03 1.587800e-20 1.000000e+02
5.565331e-03 2.768362e-20 1.000000e+02
5.669007e-03 4.790745e-20 1.000000e+02
5.774615e-03 8.289237e-20 1.000000e+02
5.882190e-03 1.444560e-19 1.000000e+02
5.991770e-03 2.554139e-19 1.000000e+02
6.103390e-03 4.609528e-19 1.000000e+02
6.217090e-03 8.487275e-19 1.000000e+02
6.332908e-03 1.590368e-18 1.000000e+02
6.450884e-03 3.025255e-18 1.000000e+02
6.571058e-03 5.827448e-18 1.000000e+02
6.693470e-03 1.133873e-17 1.000000e+02
6.818162e-03 2.222987e-17 1.000000e+02
6.945178e-03 4.380397e-17 1.000000e+02
7.074559e-03 8.654526e-17 1.000000e+02
7.206351e-03 1.712409e-16 1.000000e+02
7.340598e-03 3.392542e-16 1.000000e+02
7.477346e-03 6.728662e-16 1.000000e+02
7.616642e-03 1.335828e-15 1.000000e+02
7.758532e-03 2.654132e-15 1.000000e+02
7.903066e-03 5.276883e-15 1.000000e+02
8.050292e-03 1.049678e-14 1.000000e+02
8.200261e-03 2.091157e-14 1.000000e+02
8.353023e-03 4.183513e-14 1.000000e+02
8.508632e-03 8.428578e-14 1.000000e+02
8.667139e-03 1.714986e-13 1.000000e+02
8.828599e-03 3.534226e-13 1.000000e+02
8.993067e-03 7.397589e-13 1.000000e+02
9.160598e-03 1.572891e-12 1.000000e+02
9.331251e-03 3.355840e-12 1.000000e+02
9.505083e-03 7.072264e-12 1.000000e+02
9.682153e-03 1.449209e-11 1.000000e+02
9.862522e-03 2.842360e-11 1.000000e+02
1.004625e-02 5.252943e-11 1.000000e+02
1.023340e-02 9.104506e-11 1.000000e+02
1.042404e-02 1.504628e-10 1.000000e+02
1.061823e-02 2.416411e-10 1.000000e+02
1.081604e-02 3.843543e-10 1.000000e+02
1.101753e-02 6.171070e-10 1.000000e+02
1.122277e-02 1.013910e-09 1.000000e+02
1.143184e-02 1.700031e-09 1.000000e+02
1.164481e-02 2.891773e-09 1.000000e+02
1.186174e-02 4.960829e-09 1.000000e+02
1.208271e-02 8.532711e-09 1.000000e+02
1.230780e-02 1.467320e-08 1.000000e+02
1.253708e-02 2.526090e-08 1.000000e+02
1.277063e-02 4.360904e-08 1.000000e+02
1.300854e-02 7.561798e-08 1.000000e+02
1.325087e-02 1.318632e-07 1.000000e+02
1.349772e-02 2.311668e-07 1.000000e+02
1.374917e-02 4.071295e-07 1.000000e+02
1.400531e-02 7.198575e-07 1.000000e+02
1.426621e-02 1.277075e-06 1.000000e+02
1.453198e-02 2.272836e-06 1.000000e+02
1.480269e-02 4.057609e-06 1.000000e+02
1.507845e-02 7.265913e-06 1.000000e+02
1.535935e-02 1.304892e-05 1.000000e+02
1.564548e-02 2.349805e-05 1.000000e+02
1.593694e-02 4.241958e-05 1.000000e+02
1.623382e-02 7.674918e-05 1.000000e+02
1.653624e-02 1.391168e-04 1.000000e+02
1.684430e-02 2.525091e-04 1.000000e+02
1.715809e-02 4.587323e-04 1.000000e+02
1.747773e-02 8.337179e-04 1.000000e+02
1.780332e-02 1.515129e-03 1.000000e+02
1.813498e-02 2.751985e-03 1.000000e+02
1.847281e-02 4.994541e-03 1.000000e+02
1.881694e-02 9.057373e-03 1.000000e+02
1.916748e-02 1.641263e-02 1.000000e+02
1.952456e-02 2.971905e-02 1.000000e+02
1.988828e-02 5.377555e-02 1.000000e+02
2.025878e-02 9.723077e-02 1.000000e+02
2.063618e-02 1.755059e-01 1.000000e+02
2.102061e-02 3.158094e-01 1.000000e+02
2.141220e-02 5.656881e-01 1.000000e+02
2.181109e-02 1.007212e+00 1.000000e+02
2.221741e-02 1.780041e+00 1.000000e+02
2.263130e-02 3.118009e+00 1.000000e+02
2.305289e-02 5.405508e+00 1.000000e+02
2.348235e-02 9.261485e+00 1.000000e+02
2.391980e-02 1.565969e+01 1.000000e+02
2.436540e-02 2.609258e+01 1.000000e+02
2.481930e-02 4.278147e+01 1.000000e+02
2.528166e-02 6.893245e+01 1.000000e+02
2.575263e-02 1.091922e+02 1.000000e+02
2.623238e-02 1.703307e+02 1.000000e+02
2.672106e-02 2.621056e+02 1.000000e+02
2.721885e-02 3.985562e+02 1.000000e+02
2.772591e-02 5.999025e+02 1.000000e+02
2.824241e-02 8.953600e+02 1.000000e+02
2.876854e-02 1.327360e+03 1.000000e+02
2.930447e-02 1.957950e+03 1.000000e+02
2.985038e-02 2.878620e+03 1.000000e+02
3.040646e-02 4.222806e+03 1.000000e+02
3.097291e-02 6.149851e+03 1.000000e+02
3.154990e-02 8.817423e+03 1.000000e+02
3.213764e-02 1.234198e+04 1.000000e+02
3.273634e-02 1.672426e+04 1.000000e+02
3.334618e-02 2.175606e+04 1.000000e+02
3.396739e-02 2.694246e+04 1.000000e+02
3.460016e-02 3.149711e+04 1.000000e+02
3.524473e-02 3.446934e+04 1.000000e+02
3.590130e-02 3.501680e+04 1.000000e+02
3.657011e-02 3.274568e+04 1.000000e+02
3.725137e-02 2.795232e+04 1.000000e+02
3.794533e-02 2.159836e+04 1.000000e+02
3.865221e-02 1.498012e+04 1.000000e+02
3.937226e-02 9.248121e+03 1.000000e+02
4.010573e-02 5.039597e+03 1.000000e+02
4.085286e-02 2.424688e+03 1.000000e+02
4.161391e-02 1.053884e+03 1.000000e+02
4.238913e-02 4.249725e+02 1.000000e+02
4.317880e-02 1.632727e+02 1.000000e+02
4.398317e-02 6.137689e+01 1.000000e+02
4.480254e-02 2.318402e+01 1.000000e+02
4.563716e-02 9.036893e+00 1.000000e+02
4.648734e-02 3.732930e+00 1.000000e+02
4.735335e-02 1.678165e+00 1.000000e+02
4.823549e-02 8.431946e-01 1.000000e+02
4.913407e-02 4.862760e-01 1.000000e+02
5.004939e-02 3.305622e-01 1.000000e+02
5.098176e-02 2.692919e-01 1.000000e+02
5.193150e-02 2.582770e-01 1.000000e+02
5.289893e-02 2.844216e-01 1.000000e+02
5.388438e-02 3.507329e-01 1.000000e+02
5.488820e-02 4.723344e-01 1.000000e+02
5.591071e-02 6.774924e-01 1.000000e+02
5.695227e-02 1.009400e+00 1.000000e+02
5.801323e-02 1.523521e+00 1.000000e+02
5.909396e-02 2.271864e+00 1.000000e+02
6.019482e-02 3.264377e+00 1.000000e+02
6.131619e-02 4.446991e+00 1.000000e+02
6.245845e-02 5.771559e+00 1.000000e+02
6.362198e-02 7.193368e+00 1.000000e+02
6.480720e-02 8.678300e+00 1.000000e+02
6.601449e-02 1.021531e+01 1.000000e+02
6.724427e-02 1.182588e+01 1.000000e+02
6.849697e-02 1.357164e+01 1.000000e+02
6.977300e-02 1.556318e+01 1.000000e+02
7.107280e-02 1.795796e+01 1.000000e+02
7.239681e-02 2.085514e+01 1.000000e+02
7.374549e-02 2.431361e+01 1.000000e+02
7.511929e-02 2.838209e+01 1.000000e+02
7.651869e-02 3.308846e+01 1.000000e+02
7.794416e-02 3.842593e+01 1.000000e+02
7.939618e-02 4.433698e+01 1.000000e+02
8.087525e-02 5.069543e+01 1.000000e+02
8.238187e-02 5.726913e+01 1.000000e+02
8.391656e-02 6.370415e+01 1.000000e+02
8.547985e-02 6.954293e+01 1.000000e+02
8.707225e-02 7.425383e+01 1.000000e+02
8.869432e-02 7.728726e+01 1.000000e+02
9.034660e-02 7.815815e+01 1.000000e+02
9.202967e-02 7.692748e+01 1.000000e+02
9.374409e-02 7.464669e+01 1.000000e+02
9.549045e-02 7.243972e+01 1.000000e+02
9.726934e-02 7.131744e+01 1.000000e+02
9.908137e-02 7.225752e+01 1.000000e+02
1.009272e-01 7.638547e+01 1.000000e+02
1.028073e-01 8.432457e+01 1.000000e+02
1.047225e-01 9.604873e+01 1.000000e+02
1.066734e-01 1.114700e+02 1.000000e+02
1.086606e-01 1.301633e+02 1.000000e+02
1.106848e-01 1.510299e+02 1.000000e+02
1.127468e-01 1.730144e+02 1.000000e+02
1.148472e-01 1.962364e+02 1.000000e+02
1.169866e-01 2.211725e+02 1.000000e+02
1.191660e-01 2.486070e+02 1.000000e+02
1.213859e-01 2.796529e+02 1.000000e+02
1.236472e-01 3.150669e+02 1.000000e+02
1.259506e-01 3.551315e+02 1.000000e+02
1.282970e-01 4.000238e+02 1.000000e+02
1.306870e-01 4.497805e+02 1.000000e+02
1.331216e-01 5.043125e+02 1.000000e+02
1.356015e-01 5.634462e+02 1.000000e+02
1.381276e-01 6.268139e+02 1.000000e+02
1.407008e-01 6.938147e+02 1.000000e+02
1.433219e-01 7.645681e+02 1.000000e+02
1.459919e-01 8.412798e+02 1.000000e+02
1.487115e-01 9.272805e+02 1.000000e+02
1.514819e-01 1.026981e+03 1.000000e+02
1.543038e-01 1.143228e+03 1.000000e+02
1.571784e-01 1.276323e+03 1.000000e+02
1.601064e-01 1.425754e+03 1.000000e+02
1.630891e-01 1.590633e+03 1.000000e+02
1.661273e-01 1.771723e+03 1.000000e+02
1.692220e-01 1.970299e+03 1.000000e+02
1.723745e-01 2.187702e+03 1.000000e+02
1.755856e-01 2.425348e+03 1.000000e+02
1.788566e-01 2.684725e+03 1.000000e+02
1.821885e-01 2.967421e+03 1.000000e+02
1.855825e-01 3.275514e+03 1.000000e+02
1.890397e-01 3.611627e+03 1.000000e+02
1.925614e-01 3.978804e+03 1.000000e+02
1.961486e-01 4.380578e+03 1.000000e+02
1.998026e-01 4.821058e+03 1.000000e+02
2.035248e-01 5.304816e+03 1.000000e+02
2.073162e-01 5.836000e+03 1.000000e+02
2.111783e-01 6.418776e+03 1.000000e+02
2.151123e-01 7.057587e+03 1.000000e+02
2.191197e-01 7.757153e+03 1.000000e+02
2.232016e-01 8.522473e+03 1.000000e+02
2.273597e-01 9.358820e+03 1.000000e+02
2.315951e-01 1.027173e+04 1.000000e+02
2.359095e-01 1.126701e+04 1.000000e+02
2.403043e-01 1.235068e+04 1.000000e+02
2.447809e-01 1.352900e+04 1.000000e+02
2.493409e-01 1.480838e+04 1.000000e+02
2.539859e-01 1.619557e+04 1.000000e+02
2.587174e-01 1.769846e+04 1.000000e+02
2.635371e-01 1.932588e+04 1.000000e+02
2.684465e-01 2.108732e+04 1.000000e+02
2.734474e-01 2.299299e+04 1.000000e+02
2.785414e-01 2.505392e+04 1.000000e+02
2.837304e-01 2.728196e+04 1.000000e+02
2.890160e-01 2.968992e+04 1.000000e+02
2.944000e-01 3.229162e+04 1.000000e+02
2.998844e-01 3.510199e+04 1.000000e+02
3.054710e-01 3.813681e+04 1.000000e+02
3.111616e-01 4.141133e+04 1.000000e+02
3.169582e-01 4.494098e+04 1.000000e+02
3.228628e-01 4.874174e+04 1.000000e+02
3.288774e-01 5.283008e+04 1.000000e+02
3.350041e-01 5.722290e+04 1.000000e+02
3.412449e-01 6.193743e+04 1.000000e+02
3.476019e-01 6.699122e+04 1.000000e+02
3.540774e-01 7.240226e+04 1.000000e+02
3.606735e-01 7.819267e+04 1.000000e+02
3.673925e-01 8.438889e+04 1.000000e+02
3.742366e-01 9.101983e+04 1.000000e+02
3.812083e-01 9.811701e+04 1.000000e+02
3.883098e-01 1.057149e+05 1.000000e+02
3.955436e-01 1.138513e+05 1.000000e+02
4.029122e-01 1.225674e+05 1.000000e+02
4.104181e-01 1.319003e+05 1.000000e+02
4.180637e-01 1.418774e+05 1.000000e+02
4.258518e-01 1.525239e+05 1.000000e+02
4.337850e-01 1.638626e+05 1.000000e+02
4.418660e-01 1.759139e+05 1.000000e+02
4.500975e-01 1.886943e+05 1.000000e+02
4.584824e-01 2.022228e+05 1.000000e+02
4.670234e-01 2.165410e+05 1.000000e+02
4.757236e-01 2.317011e+05 1.000000e+02
4.845859e-01 2.477610e+05 1.000000e+02
4.936132e-01 2.647851e+05 1.000000e+02
5.028087e-01 2.828451e+05 1.000000e+02
5.121755e-01 3.020092e+05 1.000000e+02
5.217169e-01 3.223307e+05 1.000000e+02
5.314359e-01 3.438618e+05 1.000000e+02
5.413360e-01 3.666552e+05 1.000000e+02
5.514206e-01 3.907636e+05 1.000000e+02
5.616930e-01 4.162398e+05 1.000000e+02
5.721568e-01 4.431361e+05 1.000000e+02
5.828155e-01 4.715041e+05 1.000000e+02
5.936727e-01 5.013945e+05 1.000000e+02
6.047322e-01 5.328565e+05 1.000000e+02
6.159978e-01 5.659450e+05 1.000000e+02
6.274732e-01 6.007234e+05 1.000000e+02
6.391624e-01 6.372576e+05 1.000000e+02
6.510694e-01 6.756149e+05 1.000000e+02
6.631981e-01 7.158645e+05 1.000000e+02
6.755528e-01 7.580774e+05 1.000000e+02
6.881377e-01 8.023262e+05 1.000000e+02
7.009570e-01 8.486855e+05 1.000000e+02
7.140151e-01 8.972299e+05 1.000000e+02
7.273165e-01 9.480291e+05 1.000000e+02
7.408657e-01 1.001152e+06 1.000000e+02
7.546673e-01 1.056666e+06 1.000000e+02
7.687260e-01 1.114639e+06 1.000000e+02
7.830465e-01 1.175139e+06 1.000000e+02
7.976339e-01 1.238230e+06 1.000000e+02
8.124930e-01 1.303978e+06 1.000000e+02
8.276289e-01 1.372451e+06 1.000000e+02
8.430468e-01 1.443718e+06 1.000000e+02
8.587519e-01 1.517846e+06 1.000000e+02
8.747496e-01 1.594903e+06 1.000000e+02
8.910453e-01 1.674957e+06 1.000000e+02
9.076446e-01 1.758071e+06 1.000000e+02
9.245531e-01 1.844308e+06 1.000000e+02
9.417766e-01 1.933724e+06 1.000000e+02
9.593209e-01 2.026371e+06 1.000000e+02
9.771921e-01 2.122301e+06 1.000000e+02
9.953962e-01 2.221560e+06 1.000000e+02
1.013939e+00 2.324192e+06 1.000000e+02
1.032828e+00 2.430243e+06 1.000000e+02
1.052069e+00 2.539758e+06 1.000000e+02
1.071668e+00 2.652783e+06 1.000000e+02
1.091632e+00 2.769356e+06 1.000000e+02
1.111968e+00 2.889517e+06 1.000000e+02
1.132683e+00 3.013300e+06 1.000000e+02
1.153783e+00 3.140736e+06 1.000000e+02
1.175277e+00 3.271854e+06 1.000000e+02
1.197171e+00 3.406679e+06 1.000000e+02
1.219473e+00 3.545232e+06 1.000000e+02
1.242191e+00 3.687532e+06 1.000000e+02
1.265332e+00 3.833594e+06 1.000000e+02
1.288904e+00 3.983481e+06 1.000000e+02
1.312915e+00 4.137286e+06 1.000000e+02
1.337373e+00 4.295116e+06 1.000000e+02
1.362287e+00 4.457083e+06 1.000000e+02
1.387665e+00 4.623313e+06 1.000000e+02
1.413516e+00 4.793943e+06 1.000000e+02
1.439848e+00 4.969119e+06 1.000000e+02
1.466671e+00 5.149003e+06 1.000000e+02
1.493993e+00 5.333770e+06 1.000000e+02
1.521825e+00 5.523574e+06 1.000000e+02
1.550175e+00 5.718296e+06 1.000000e+02
1.579053e+00 5.917649e+06 1.000000e+02
1.608469e+00 6.121296e+06 1.000000e+02
1.638434e+00 6.328849e+06 1.000000e+02
1.668956e+00 6.539866e+06 1.000000e+02
1.700047e+00 6.753848e+06 1.000000e+02
1.731717e+00 6.970235e+06 1.000000e+02
1.763977e+00 7.188425e+06 1.000000e+02
1.796838e+00 7.408200e+06 1.000000e+02
1.830312e+00 7.629887e+06 1.000000e+02
1.864409e+00 7.853903e+06 1.000000e+02
1.899141e+00 8.080733e+06 1.000000e+02
1.934520e+00 8.310925e+06 1.000000e+02
1.970558e+00 8.545096e+06 1.000000e+02
2.007267e+00 8.783937e+06 1.000000e+02
2.044661e+00 9.027968e+06 1.000000e+02
2.082751e+00 9.277195e+06 1.000000e+02
2.121550e+00 9.531542e+06 1.000000e+02
2.161073e+00 9.790914e+06 1.000000e+02
2.201331e+00 1.005520e+07 1.000000e+02
2.242340e+00 1.032427e+07 1.000000e+02
2.284112e+00 1.059798e+07 1.000000e+02
2.326663e+00 1.087617e+07 1.000000e+02
2.370006e+00 1.115864e+07 1.000000e+02
2.414157e+00 1.144519e+07 1.000000e+02
2.459130e+00 1.173560e+07 1.000000e+02
2.504942e+00 1.202962e+07 1.000000e+02
2.551606e+00 1.232705e+07 1.000000e+02
2.599140e+00 1.262793e+07 1.000000e+02
2.647559e+00 1.293236e+07 1.000000e+02
2.696881e+00 1.324042e+07 1.000000e+02
2.747121e+00 1.355224e+07 1.000000e+02
2.798297e+00 1.386794e+07 1.000000e+02
2.850426e+00 1.418767e+07 1.000000e+02
2.903527e+00 1.451159e+07 1.000000e+02
2.957617e+00 1.483985e+07 1.000000e+02
3.012714e+00 1.517267e+07 1.000000e+02
3.068838e+00 1.551018e+07 1.000000e+02
3.126007e+00 1.585248e+07 1.000000e+02
3.184242e+00 1.619962e+07 1.000000e+02
3.243561e+00 1.655170e+07 1.000000e+02
3.303985e+00 1.690879e+07 1.000000e+02
3.365535e+00 1.727097e+07 1.000000e+02
3.428231e+00 1.763834e+07 1.000000e+02
3.492096e+00 1.801099e+07 1.000000e+02
3.557150e+00 1.838903e+07 1.000000e+02
3.623416e+00 1.877262e+07 1.000000e+02
3.690917e+00 1.916194e+07 1.000000e+02
3.759675e+00 1.955717e+07 1.000000e+02
3.829714e+00 1.995853e+07 1.000000e+02
3.901058e+00 2.036622e+07 1.000000e+02
3.973730e+00 2.078048e+07 1.000000e+02
4.047757e+00 2.120155e+07 1.000000e+02
4.123163e+00 2.162966e+07 1.000000e+02
4.199973e+00 2.206506e+07 1.000000e+02
4.278214e+00 2.250802e+07 1.000000e+02
4.357913e+00 2.295879e+07 1.000000e+02
4.439097e+00 2.341766e+07 1.000000e+02
4.521792e+00 2.388494e+07 1.000000e+02
4.606029e+00 2.436094e+07 1.000000e+02
4.691835e+00 2.484598e+07 1.000000e+02
4.779239e+00 2.534042e+07 1.000000e+02
4.868271e+00 2.584462e+07 1.000000e+02
4.958962e+00 2.635896e+07 1.000000e+02
5.051342e+00 2.688385e+07 1.000000e+02
5.145444e+00 2.741964e+07 1.000000e+02
5.241298e+00 2.796669e+07 1.000000e+02
5.338938e+00 2.852534e+07 1.000000e+02
5.438397e+00 2.909596e+07 1.000000e+02
5.539709e+00 2.967893e+07 1.000000e+02
5.642908e+00 3.027464e+07 1.000000e+02
5.748030e+00 3.088352e+07 1.000000e+02
5.855110e+00 3.150597e+07 1.000000e+02
5.964185e+00 3.214245e+07 1.000000e+02
6.075292e+00 3.279342e+07 1.000000e+02
6.188468e+00 3.345924e+07 1.000000e+02
6.303753e+00 3.414022e+07 1.000000e+02
6.421186e+00 3.483666e+07 1.000000e+02
6.540806e+00 3.554890e+07 1.000000e+02
6.662655e+00 3.627724e+07 1.000000e+02
6.786773e+00 3.702201e+07 1.000000e+02
6.913204e+00 3.778355e+07 1.000000e+02
7.041990e+00 3.856219e+07 1.000000e+02
7.173175e+00 3.935819e+07 1.000000e+02
7.306804e+00 4.017173e+07 1.000000e+02
7.442922e+00 4.100292e+07 1.000000e+02
7.581576e+00 4.185190e+07 1.000000e+02
7.722814e+00 4.271878e+07 1.000000e+02
7.866682e+00 4.360364e+07 1.000000e+02
8.013230e+00 4.450657e+07 1.000000e+02
8.162509e+00 4.542761e+07 1.000000e+02
8.314568e+00 4.636670e+07 1.000000e+02
8.469460e+00 4.732374e+07 1.000000e+02
8.627237e+00 4.829860e+07 1.000000e+02
8.787954e+00 4.929111e+07 1.000000e+02
8.951665e+00 5.030108e+07 1.000000e+02
9.118425e+00 5.132828e+07 1.000000e+02
9.288292e+00 5.237244e+07 1.000000e+02
9.461324e+00 5.343326e+07 1.000000e+02
9.637579e+00 5.451039e+07 1.000000e+02
9.817117e+00 5.560345e+07 1.000000e+02
1.000000e+01 5.671200e+07 1.000000e+02
