# C13 + He3 > O15 + n   [C13_He3__O15_n]   ref=TALYS2
# detailed balance: alpha=4.172 beta=0 gamma=-82.7321  Q=7.1293
# T9                 rate                error
1.000000e-03 1.000000e-35 1.000000e+02
1.018629e-03 9.995786e-36 1.000000e+02
1.037605e-03 9.991944e-36 1.000000e+02
1.056935e-03 9.988462e-36 1.000000e+02
1.076624e-03 9.985328e-36 1.000000e+02
1.096681e-03 9.982529e-36 1.000000e+02
1.117111e-03 9.980054e-36 1.000000e+02
1.137921e-03 9.977891e-36 1.000000e+02
1.159120e-03 9.976027e-36 1.000000e+02
1.180713e-03 9.974451e-36 1.000000e+02
1.202708e-03 9.973150e-36 1.000000e+02
1.225114e-03 9.972113e-36 1.000000e+02
1.247936e-03 9.971329e-36 1.000000e+02
1.271184e-03 9.970784e-36 1.000000e+02
1.294865e-03 9.970467e-36 1.000000e+02
1.318987e-03 9.970367e-36 1.000000e+02
1.343558e-03 9.970471e-36 1.000000e+02
1.368587e-03 9.970768e-36 1.000000e+02
1.394083e-03 9.971246e-36 1.000000e+02
1.420053e-03 9.971894e-36 1.000000e+02
1.446507e-03 9.972699e-36 1.000000e+02
1.473454e-03 9.973649e-36 1.000000e+02
1.500903e-03 9.974734e-36 1.000000e+02
1.528864e-03 9.975941e-36 1.000000e+02
1.557345e-03 9.977259e-36 1.000000e+02
1.586357e-03 9.978675e-36 1.000000e+02
1.615909e-03 9.980179e-36 1.000000e+02
1.646012e-03 9.981758e-36 1.000000e+02
1.676675e-03 9.983400e-36 1.000000e+02
1.707910e-03 9.985094e-36 1.000000e+02
1.739726e-03 9.986827e-36 1.000000e+02
1.772136e-03 9.988589e-36 1.000000e+02
1.805149e-03 9.990368e-36 1.000000e+02
1.838777e-03 9.992151e-36 1.000000e+02
1.873032e-03 9.993926e-36 1.000000e+02
1.907924e-03 9.995683e-36 1.000000e+02
1.943467e-03 9.997408e-36 1.000000e+02
1.979672e-03 9.999091e-36 1.000000e+02
2.016551e-03 1.000072e-35 1.000000e+02
2.054117e-03 1.000228e-35 1.000000e+02
2.092383e-03 1.000376e-35 1.000000e+02
2.131362e-03 1.000516e-35 1.000000e+02
2.171068e-03 1.000645e-35 1.000000e+02
2.211512e-03 1.000763e-35 1.000000e+02
2.252711e-03 1.000868e-35 1.000000e+02
2.294676e-03 1.000959e-35 1.000000e+02
2.337424e-03 1.001036e-35 1.000000e+02
2.380968e-03 1.001096e-35 1.000000e+02
2.425323e-03 1.001139e-35 1.000000e+02
2.470504e-03 1.001163e-35 1.000000e+02
2.516527e-03 1.001168e-35 1.000000e+02
2.563407e-03 1.001152e-35 1.000000e+02
2.611161e-03 1.001114e-35 1.000000e+02
2.659804e-03 1.001052e-35 1.000000e+02
2.709354e-03 1.000967e-35 1.000000e+02
2.759826e-03 1.000855e-35 1.000000e+02
2.811239e-03 1.000717e-35 1.000000e+02
2.863610e-03 1.000551e-35 1.000000e+02
2.916956e-03 1.000355e-35 1.000000e+02
2.971296e-03 1.000130e-35 1.000000e+02
3.026648e-03 9.998731e-36 1.000000e+02
3.083031e-03 9.995906e-36 1.000000e+02
3.140465e-03 9.992947e-36 1.000000e+02
3.198969e-03 9.989979e-36 1.000000e+02
3.258562e-03 9.987126e-36 1.000000e+02
3.319266e-03 9.984515e-36 1.000000e+02
3.381101e-03 9.982269e-36 1.000000e+02
3.444087e-03 9.980515e-36 1.000000e+02
3.508247e-03 9.979377e-36 1.000000e+02
3.573602e-03 9.978981e-36 1.000000e+02
3.640175e-03 9.979450e-36 1.000000e+02
3.707988e-03 9.980911e-36 1.000000e+02
3.777064e-03 9.983489e-36 1.000000e+02
3.847427e-03 9.987310e-36 1.000000e+02
3.919100e-03 9.992501e-36 1.000000e+02
3.992109e-03 9.999190e-36 1.000000e+02
4.066478e-03 1.000741e-35 1.000000e+02
4.142232e-03 1.001662e-35 1.000000e+02
4.219398e-03 1.002611e-35 1.000000e+02
4.298001e-03 1.003517e-35 1.000000e+02
4.378069e-03 1.004306e-35 1.000000e+02
4.459628e-03 1.004906e-35 1.000000e+02
4.542706e-03 1.005244e-35 1.000000e+02
4.627332e-03 1.005247e-35 1.000000e+02
4.713535e-03 1.004844e-35 1.000000e+02
4.801343e-03 1.003963e-35 1.000000e+02
4.890787e-03 1.002532e-35 1.000000e+02
4.981898e-03 1.000482e-35 1.000000e+02
5.074705e-03 9.977613e-36 1.000000e+02
5.169242e-03 9.944456e-36 1.000000e+02
5.265540e-03 9.906639e-36 1.000000e+02
5.363631e-03 9.865447e-36 1.000000e+02
5.463550e-03 9.822152e-36 1.000000e+02
5.565331e-03 9.778004e-36 1.000000e+02
5.669007e-03 9.734232e-36 1.000000e+02
5.774615e-03 9.692044e-36 1.000000e+02
5.882190e-03 9.652627e-36 1.000000e+02
5.991770e-03 9.617149e-36 1.000000e+02
6.103390e-03 9.586483e-36 1.000000e+02
6.217090e-03 9.560079e-36 1.000000e+02
6.332908e-03 9.536959e-36 1.000000e+02
6.450884e-03 9.516160e-36 1.000000e+02
6.571058e-03 9.496726e-36 1.000000e+02
6.693470e-03 9.477712e-36 1.000000e+02
6.818162e-03 9.458181e-36 1.000000e+02
6.945178e-03 9.437203e-36 1.000000e+02
7.074559e-03 9.414005e-36 1.000000e+02
7.206351e-03 9.390302e-36 1.000000e+02
7.340598e-03 9.369830e-36 1.000000e+02
7.477346e-03 9.356354e-36 1.000000e+02
7.616642e-03 9.353630e-36 1.000000e+02
7.758532e-03 9.365437e-36 1.000000e+02
7.903066e-03 9.395634e-36 1.000000e+02
8.050292e-03 9.448095e-36 1.000000e+02
8.200261e-03 9.519540e-36 1.000000e+02
8.353023e-03 9.595372e-36 1.000000e+02
8.508632e-03 9.659600e-36 1.000000e+02
8.667139e-03 9.695839e-36 1.000000e+02
8.828599e-03 9.687640e-36 1.000000e+02
8.993067e-03 9.619096e-36 1.000000e+02
9.160598e-03 9.488467e-36 1.000000e+02
9.331251e-03 9.352228e-36 1.000000e+02
9.505083e-03 9.280125e-36 1.000000e+02
9.682153e-03 9.340598e-36 1.000000e+02
9.862522e-03 9.608160e-36 1.000000e+02
1.004625e-02 1.017643e-35 1.000000e+02
1.023340e-02 1.112678e-35 1.000000e+02
1.042404e-02 1.247331e-35 1.000000e+02
1.061823e-02 1.422264e-35 1.000000e+02
1.081604e-02 1.636487e-35 1.000000e+02
1.101753e-02 1.885066e-35 1.000000e+02
1.122277e-02 2.161433e-35 1.000000e+02
1.143184e-02 2.469911e-35 1.000000e+02
1.164481e-02 2.819991e-35 1.000000e+02
1.186174e-02 3.225104e-35 1.000000e+02
1.208271e-02 3.703905e-35 1.000000e+02
1.230780e-02 4.276976e-35 1.000000e+02
1.253708e-02 4.963029e-35 1.000000e+02
1.277063e-02 5.783687e-35 1.000000e+02
1.300854e-02 6.764342e-35 1.000000e+02
1.325087e-02 7.936028e-35 1.000000e+02
1.349772e-02 9.341487e-35 1.000000e+02
1.374917e-02 1.103587e-34 1.000000e+02
1.400531e-02 1.308932e-34 1.000000e+02
1.426621e-02 1.559081e-34 1.000000e+02
1.453198e-02 1.865104e-34 1.000000e+02
1.480269e-02 2.241005e-34 1.000000e+02
1.507845e-02 2.704648e-34 1.000000e+02
1.535935e-02 3.278988e-34 1.000000e+02
1.564548e-02 3.993745e-34 1.000000e+02
1.593694e-02 4.887474e-34 1.000000e+02
1.623382e-02 6.010447e-34 1.000000e+02
1.653624e-02 7.428827e-34 1.000000e+02
1.684430e-02 9.230101e-34 1.000000e+02
1.715809e-02 1.153047e-33 1.000000e+02
1.747773e-02 1.448518e-33 1.000000e+02
1.780332e-02 1.830283e-33 1.000000e+02
1.813498e-02 2.326543e-33 1.000000e+02
1.847281e-02 2.975438e-33 1.000000e+02
1.881694e-02 3.828641e-33 1.000000e+02
1.916748e-02 4.956744e-33 1.000000e+02
1.952456e-02 6.456703e-33 1.000000e+02
1.988828e-02 8.462367e-33 1.000000e+02
2.025878e-02 1.115976e-32 1.000000e+02
2.063618e-02 1.481261e-32 1.000000e+02
2.102061e-02 1.979804e-32 1.000000e+02
2.141220e-02 2.665803e-32 1.000000e+02
2.181109e-02 3.617854e-32 1.000000e+02
2.221741e-02 4.950993e-32 1.000000e+02
2.263130e-02 6.835232e-32 1.000000e+02
2.305289e-02 9.524353e-32 1.000000e+02
2.348235e-02 1.340110e-31 1.000000e+02
2.391980e-02 1.904887e-31 1.000000e+02
2.436540e-02 2.736678e-31 1.000000e+02
2.481930e-02 3.975622e-31 1.000000e+02
2.528166e-02 5.842466e-31 1.000000e+02
2.575263e-02 8.683731e-31 1.000000e+02
2.623238e-02 1.304484e-30 1.000000e+02
2.672106e-02 1.979206e-30 1.000000e+02
2.721885e-02 3.030829e-30 1.000000e+02
2.772591e-02 4.681098e-30 1.000000e+02
2.824241e-02 7.286985e-30 1.000000e+02
2.876854e-02 1.142509e-29 1.000000e+02
2.930447e-02 1.802940e-29 1.000000e+02
2.985038e-02 2.861610e-29 1.000000e+02
3.040646e-02 4.566026e-29 1.000000e+02
3.097291e-02 7.335441e-29 1.000000e+02
3.154990e-02 1.189623e-28 1.000000e+02
3.213764e-02 1.952668e-28 1.000000e+02
3.273634e-02 3.252547e-28 1.000000e+02
3.334618e-02 5.512327e-28 1.000000e+02
3.396739e-02 9.530223e-28 1.000000e+02
3.460016e-02 1.685265e-27 1.000000e+02
3.524473e-02 3.056120e-27 1.000000e+02
3.590130e-02 5.698366e-27 1.000000e+02
3.657011e-02 1.095338e-26 1.000000e+02
3.725137e-02 2.176227e-26 1.000000e+02
3.794533e-02 4.480833e-26 1.000000e+02
3.865221e-02 9.586324e-26 1.000000e+02
3.937226e-02 2.136607e-25 1.000000e+02
4.010573e-02 4.974092e-25 1.000000e+02
4.085286e-02 1.208982e-24 1.000000e+02
4.161391e-02 3.041823e-24 1.000000e+02
4.238913e-02 7.844757e-24 1.000000e+02
4.317880e-02 2.053428e-23 1.000000e+02
4.398317e-02 5.402033e-23 1.000000e+02
4.480254e-02 1.414281e-22 1.000000e+02
4.563716e-02 3.648702e-22 1.000000e+02
4.648734e-02 9.185189e-22 1.000000e+02
4.735335e-02 2.234129e-21 1.000000e+02
4.823549e-02 5.199025e-21 1.000000e+02
4.913407e-02 1.146179e-20 1.000000e+02
5.004939e-02 2.370406e-20 1.000000e+02
5.098176e-02 4.570909e-20 1.000000e+02
5.193150e-02 8.275049e-20 1.000000e+02
5.289893e-02 1.420038e-19 1.000000e+02
5.388438e-02 2.332191e-19 1.000000e+02
5.488820e-02 3.701144e-19 1.000000e+02
5.591071e-02 5.730454e-19 1.000000e+02
5.695227e-02 8.739694e-19 1.000000e+02
5.801323e-02 1.325656e-18 1.000000e+02
5.909396e-02 2.019138e-18 1.000000e+02
6.019482e-02 3.117955e-18 1.000000e+02
6.131619e-02 4.910586e-18 1.000000e+02
6.245845e-02 7.866478e-18 1.000000e+02
6.362198e-02 1.276685e-17 1.000000e+02
6.480720e-02 2.090817e-17 1.000000e+02
6.601449e-02 3.441521e-17 1.000000e+02
6.724427e-02 5.670997e-17 1.000000e+02
6.849697e-02 9.317854e-17 1.000000e+02
6.977300e-02 1.520522e-16 1.000000e+02
7.107280e-02 2.455658e-16 1.000000e+02
7.239681e-02 3.923971e-16 1.000000e+02
7.374549e-02 6.210688e-16 1.000000e+02
7.511929e-02 9.747312e-16 1.000000e+02
7.651869e-02 1.518576e-15 1.000000e+02
7.794416e-02 2.351094e-15 1.000000e+02
7.939618e-02 3.621265e-15 1.000000e+02
8.087525e-02 5.553964e-15 1.000000e+02
8.238187e-02 8.465395e-15 1.000000e+02
8.391656e-02 1.276897e-14 1.000000e+02
8.547985e-02 1.897861e-14 1.000000e+02
8.707225e-02 2.767637e-14 1.000000e+02
8.869432e-02 3.942992e-14 1.000000e+02
9.034660e-02 5.464637e-14 1.000000e+02
9.202967e-02 7.370803e-14 1.000000e+02
9.374409e-02 9.780513e-14 1.000000e+02
9.549045e-02 1.292310e-13 1.000000e+02
9.726934e-02 1.721057e-13 1.000000e+02
9.908137e-02 2.338363e-13 1.000000e+02
1.009272e-01 3.279313e-13 1.000000e+02
1.028073e-01 4.752202e-13 1.000000e+02
1.047225e-01 7.049470e-13 1.000000e+02
1.066734e-01 1.059929e-12 1.000000e+02
1.086606e-01 1.599429e-12 1.000000e+02
1.106848e-01 2.398634e-12 1.000000e+02
1.127468e-01 3.556267e-12 1.000000e+02
1.148472e-01 5.221783e-12 1.000000e+02
1.169866e-01 7.611297e-12 1.000000e+02
1.191660e-01 1.103914e-11 1.000000e+02
1.213859e-01 1.596668e-11 1.000000e+02
1.236472e-01 2.304111e-11 1.000000e+02
1.259506e-01 3.314795e-11 1.000000e+02
1.282970e-01 4.750258e-11 1.000000e+02
1.306870e-01 6.775231e-11 1.000000e+02
1.331216e-01 9.602892e-11 1.000000e+02
1.356015e-01 1.348719e-10 1.000000e+02
1.381276e-01 1.871528e-10 1.000000e+02
1.407008e-01 2.558344e-10 1.000000e+02
1.433219e-01 3.449526e-10 1.000000e+02
1.459919e-01 4.628996e-10 1.000000e+02
1.487115e-01 6.242913e-10 1.000000e+02
1.514819e-01 8.541322e-10 1.000000e+02
1.543038e-01 1.186716e-09 1.000000e+02
1.571784e-01 1.663323e-09 1.000000e+02
1.601064e-01 2.335691e-09 1.000000e+02
1.630891e-01 3.267570e-09 1.000000e+02
1.661273e-01 4.549677e-09 1.000000e+02
1.692220e-01 6.305356e-09 1.000000e+02
1.723745e-01 8.698396e-09 1.000000e+02
1.755856e-01 1.194528e-08 1.000000e+02
1.788566e-01 1.633085e-08 1.000000e+02
1.821885e-01 2.222882e-08 1.000000e+02
1.855825e-01 3.013848e-08 1.000000e+02
1.890397e-01 4.073167e-08 1.000000e+02
1.925614e-01 5.491110e-08 1.000000e+02
1.961486e-01 7.389516e-08 1.000000e+02
1.998026e-01 9.933694e-08 1.000000e+02
2.035248e-01 1.334753e-07 1.000000e+02
2.073162e-01 1.792618e-07 1.000000e+02
2.111783e-01 2.406009e-07 1.000000e+02
2.151123e-01 3.226678e-07 1.000000e+02
2.191197e-01 4.323035e-07 1.000000e+02
2.232016e-01 5.785262e-07 1.000000e+02
2.273597e-01 7.731870e-07 1.000000e+02
2.315951e-01 1.031809e-06 1.000000e+02
2.359095e-01 1.374654e-06 1.000000e+02
2.403043e-01 1.828072e-06 1.000000e+02
2.447809e-01 2.426190e-06 1.000000e+02
2.493409e-01 3.213025e-06 1.000000e+02
2.539859e-01 4.245215e-06 1.000000e+02
2.587174e-01 5.596230e-06 1.000000e+02
2.635371e-01 7.361135e-06 1.000000e+02
2.684465e-01 9.662519e-06 1.000000e+02
2.734474e-01 1.265830e-05 1.000000e+02
2.785414e-01 1.655171e-05 1.000000e+02
2.837304e-01 2.160408e-05 1.000000e+02
2.890160e-01 2.815123e-05 1.000000e+02
2.944000e-01 3.662440e-05 1.000000e+02
2.998844e-01 4.757714e-05 1.000000e+02
3.054710e-01 6.171786e-05 1.000000e+02
3.111616e-01 7.994338e-05 1.000000e+02
3.169582e-01 1.033887e-04 1.000000e+02
3.228628e-01 1.334881e-04 1.000000e+02
3.288774e-01 1.720483e-04 1.000000e+02
3.350041e-01 2.213383e-04 1.000000e+02
3.412449e-01 2.841979e-04 1.000000e+02
3.476019e-01 3.641690e-04 1.000000e+02
3.540774e-01 4.656585e-04 1.000000e+02
3.606735e-01 5.942180e-04 1.000000e+02
3.673925e-01 7.568617e-04 1.000000e+02
3.742366e-01 9.624086e-04 1.000000e+02
3.812083e-01 1.221953e-03 1.000000e+02
3.883098e-01 1.549463e-03 1.000000e+02
3.955436e-01 1.962544e-03 1.000000e+02
4.029122e-01 2.483402e-03 1.000000e+02
4.104181e-01 3.139499e-03 1.000000e+02
4.180637e-01 3.964135e-03 1.000000e+02
4.258518e-01 4.997958e-03 1.000000e+02
4.337850e-01 6.290344e-03 1.000000e+02
4.418660e-01 7.900878e-03 1.000000e+02
4.500975e-01 9.900950e-03 1.000000e+02
4.584824e-01 1.237660e-02 1.000000e+02
4.670234e-01 1.543579e-02 1.000000e+02
4.757236e-01 1.921222e-02 1.000000e+02
4.845859e-01 2.387073e-02 1.000000e+02
4.936132e-01 2.961498e-02 1.000000e+02
5.028087e-01 3.669713e-02 1.000000e+02
5.121755e-01 4.542504e-02 1.000000e+02
5.217169e-01 5.616738e-02 1.000000e+02
5.314359e-01 6.937030e-02 1.000000e+02
5.413360e-01 8.557340e-02 1.000000e+02
5.514206e-01 1.054277e-01 1.000000e+02
5.616930e-01 1.297170e-01 1.000000e+02
5.721568e-01 1.593822e-01 1.000000e+02
5.828155e-01 1.955505e-01 1.000000e+02
5.936727e-01 2.395682e-01 1.000000e+02
6.047322e-01 2.930396e-01 1.000000e+02
6.159978e-01 3.578840e-01 1.000000e+02
6.274732e-01 4.364050e-01 1.000000e+02
6.391624e-01 5.313520e-01 1.000000e+02
6.510694e-01 6.460015e-01 1.000000e+02
6.631981e-01 7.842547e-01 1.000000e+02
6.755528e-01 9.507508e-01 1.000000e+02
6.881377e-01 1.151002e+00 1.000000e+02
7.009570e-01 1.391549e+00 1.000000e+02
7.140151e-01 1.680138e+00 1.000000e+02
7.273165e-01 2.025892e+00 1.000000e+02
7.408657e-01 2.439561e+00 1.000000e+02
7.546673e-01 2.933796e+00 1.000000e+02
7.687260e-01 3.523468e+00 1.000000e+02
7.830465e-01 4.226022e+00 1.000000e+02
7.976339e-01 5.061898e+00 1.000000e+02
8.124930e-01 6.055008e+00 1.000000e+02
8.276289e-01 7.233327e+00 1.000000e+02
8.430468e-01 8.629534e+00 1.000000e+02
8.587519e-01 1.028173e+01 1.000000e+02
8.747496e-01 1.223427e+01 1.000000e+02
8.910453e-01 1.453874e+01 1.000000e+02
9.076446e-01 1.725505e+01 1.000000e+02
9.245531e-01 2.045251e+01 1.000000e+02
9.417766e-01 2.421115e+01 1.000000e+02
9.593209e-01 2.862331e+01 1.000000e+02
9.771921e-01 3.379534e+01 1.000000e+02
9.953962e-01 3.984957e+01 1.000000e+02
1.013939e+00 4.692647e+01 1.000000e+02
1.032828e+00 5.518745e+01 1.000000e+02
1.052069e+00 6.481772e+01 1.000000e+02
1.071668e+00 7.602928e+01 1.000000e+02
1.091632e+00 8.906447e+01 1.000000e+02
1.111968e+00 1.041999e+02 1.000000e+02
1.132683e+00 1.217508e+02 1.000000e+02
1.153783e+00 1.420762e+02 1.000000e+02
1.175277e+00 1.655839e+02 1.000000e+02
1.197171e+00 1.927369e+02 1.000000e+02
1.219473e+00 2.240600e+02 1.000000e+02
1.242191e+00 2.601474e+02 1.000000e+02
1.265332e+00 3.016712e+02 1.000000e+02
1.288904e+00 3.493998e+02 1.000000e+02
1.312915e+00 4.042114e+02 1.000000e+02
1.337373e+00 4.671049e+02 1.000000e+02
1.362287e+00 5.392163e+02 1.000000e+02
1.387665e+00 6.218380e+02 1.000000e+02
1.413516e+00 7.164400e+02 1.000000e+02
1.439848e+00 8.246957e+02 1.000000e+02
1.466671e+00 9.485094e+02 1.000000e+02
1.493993e+00 1.090050e+03 1.000000e+02
1.521825e+00 1.251766e+03 1.000000e+02
1.550175e+00 1.436233e+03 1.000000e+02
1.579053e+00 1.646172e+03 1.000000e+02
1.608469e+00 1.884510e+03 1.000000e+02
1.638434e+00 2.154359e+03 1.000000e+02
1.668956e+00 2.458997e+03 1.000000e+02
1.700047e+00 2.801832e+03 1.000000e+02
1.731717e+00 3.186355e+03 1.000000e+02
1.763977e+00 3.616099e+03 1.000000e+02
1.796838e+00 4.095261e+03 1.000000e+02
1.830312e+00 4.629236e+03 1.000000e+02
1.864409e+00 5.224202e+03 1.000000e+02
1.899141e+00 5.887214e+03 1.000000e+02
1.934520e+00 6.626366e+03 1.000000e+02
1.970558e+00 7.450977e+03 1.000000e+02
2.007267e+00 8.371812e+03 1.000000e+02
2.044661e+00 9.400617e+03 1.000000e+02
2.082751e+00 1.054896e+04 1.000000e+02
2.121550e+00 1.182916e+04 1.000000e+02
2.161073e+00 1.325454e+04 1.000000e+02
2.201331e+00 1.483940e+04 1.000000e+02
2.242340e+00 1.659910e+04 1.000000e+02
2.284112e+00 1.855001e+04 1.000000e+02
2.326663e+00 2.070951e+04 1.000000e+02
2.370006e+00 2.309601e+04 1.000000e+02
2.414157e+00 2.572886e+04 1.000000e+02
2.459130e+00 2.862829e+04 1.000000e+02
2.504942e+00 3.181535e+04 1.000000e+02
2.551606e+00 3.531244e+04 1.000000e+02
2.599140e+00 3.914491e+04 1.000000e+02
2.647559e+00 4.334021e+04 1.000000e+02
2.696881e+00 4.792765e+04 1.000000e+02
2.747121e+00 5.293856e+04 1.000000e+02
2.798297e+00 5.840637e+04 1.000000e+02
2.850426e+00 6.436680e+04 1.000000e+02
2.903527e+00 7.085794e+04 1.000000e+02
2.957617e+00 7.792045e+04 1.000000e+02
3.012714e+00 8.559768e+04 1.000000e+02
3.068838e+00 9.393508e+04 1.000000e+02
3.126007e+00 1.029790e+05 1.000000e+02
3.184242e+00 1.127776e+05 1.000000e+02
3.243561e+00 1.233814e+05 1.000000e+02
3.303985e+00 1.348427e+05 1.000000e+02
3.365535e+00 1.472161e+05 1.000000e+02
3.428231e+00 1.605579e+05 1.000000e+02
3.492096e+00 1.749265e+05 1.000000e+02
3.557150e+00 1.903821e+05 1.000000e+02
3.623416e+00 2.069883e+05 1.000000e+02
3.690917e+00 2.248111e+05 1.000000e+02
3.759675e+00 2.439190e+05 1.000000e+02
3.829714e+00 2.643825e+05 1.000000e+02
3.901058e+00 2.862745e+05 1.000000e+02
3.973730e+00 3.096696e+05 1.000000e+02
4.047757e+00 3.346448e+05 1.000000e+02
4.123163e+00 3.612782e+05 1.000000e+02
4.199973e+00 3.896489e+05 1.000000e+02
4.278214e+00 4.198376e+05 1.000000e+02
4.357913e+00 4.519262e+05 1.000000e+02
4.439097e+00 4.859973e+05 1.000000e+02
4.521792e+00 5.221348e+05 1.000000e+02
4.606029e+00 5.604226e+05 1.000000e+02
4.691835e+00 6.009455e+05 1.000000e+02
4.779239e+00 6.437881e+05 1.000000e+02
4.868271e+00 6.890349e+05 1.000000e+02
4.958962e+00 7.367702e+05 1.000000e+02
5.051342e+00 7.870773e+05 1.000000e+02
5.145444e+00 8.400384e+05 1.000000e+02
5.241298e+00 8.957340e+05 1.000000e+02
5.338938e+00 9.542426e+05 1.000000e+02
5.438397e+00 1.015641e+06 1.000000e+02
5.539709e+00 1.080002e+06 1.000000e+02
5.642908e+00 1.147399e+06 1.000000e+02
5.748030e+00 1.217898e+06 1.000000e+02
5.855110e+00 1.291563e+06 1.000000e+02
5.964185e+00 1.368456e+06 1.000000e+02
6.075292e+00 1.448631e+06 1.000000e+02
6.188468e+00 1.532137e+06 1.000000e+02
6.303753e+00 1.619016e+06 1.000000e+02
6.421186e+00 1.709301e+06 1.000000e+02
6.540806e+00 1.803022e+06 1.000000e+02
6.662655e+00 1.900197e+06 1.000000e+02
6.786773e+00 2.000841e+06 1.000000e+02
6.913204e+00 2.104956e+06 1.000000e+02
7.041990e+00 2.212538e+06 1.000000e+02
7.173175e+00 2.323572e+06 1.000000e+02
7.306804e+00 2.438030e+06 1.000000e+02
7.442922e+00 2.555873e+06 1.000000e+02
7.581576e+00 2.677052e+06 1.000000e+02
7.722814e+00 2.801506e+06 1.000000e+02
7.866682e+00 2.929161e+06 1.000000e+02
8.013230e+00 3.059932e+06 1.000000e+02
8.162509e+00 3.193720e+06 1.000000e+02
8.314568e+00 3.330412e+06 1.000000e+02
8.469460e+00 3.469878e+06 1.000000e+02
8.627237e+00 3.611977e+06 1.000000e+02
8.787954e+00 3.756553e+06 1.000000e+02
8.951665e+00 3.903437e+06 1.000000e+02
9.118425e+00 4.052446e+06 1.000000e+02
9.288292e+00 4.203382e+06 1.000000e+02
9.461324e+00 4.356035e+06 1.000000e+02
9.637579e+00 4.510182e+06 1.000000e+02
9.817117e+00 4.665587e+06 1.000000e+02
1.000000e+01 4.822000e+06 1.000000e+02
