# C13 + t > N15 + n   [C13_t__N15_n]   ref=TALYS2
# detailed balance: alpha=4.1733 beta=0 gamma=-114.909  Q=9.9021
# T9                 rate                error
1.000000e-03 1.000000e-35 1.000000e+02
1.018629e-03 1.013241e-35 1.000000e+02
1.037605e-03 1.023101e-35 1.000000e+02
1.056935e-03 1.029603e-35 1.000000e+02
1.076624e-03 1.032810e-35 1.000000e+02
1.096681e-03 1.032815e-35 1.000000e+02
1.117111e-03 1.029743e-35 1.000000e+02
1.137921e-03 1.023747e-35 1.000000e+02
1.159120e-03 1.015001e-35 1.000000e+02
1.180713e-03 1.003698e-35 1.000000e+02
1.202708e-03 9.900466e-36 1.000000e+02
1.225114e-03 9.742645e-36 1.000000e+02
1.247936e-03 9.565763e-36 1.000000e+02
1.271184e-03 9.372096e-36 1.000000e+02
1.294865e-03 9.163913e-36 1.000000e+02
1.318987e-03 8.943453e-36 1.000000e+02
1.343558e-03 8.712892e-36 1.000000e+02
1.368587e-03 8.474326e-36 1.000000e+02
1.394083e-03 8.229748e-36 1.000000e+02
1.420053e-03 7.981037e-36 1.000000e+02
1.446507e-03 7.729943e-36 1.000000e+02
1.473454e-03 7.478084e-36 1.000000e+02
1.500903e-03 7.226938e-36 1.000000e+02
1.528864e-03 6.977840e-36 1.000000e+02
1.557345e-03 6.731988e-36 1.000000e+02
1.586357e-03 6.490439e-36 1.000000e+02
1.615909e-03 6.254119e-36 1.000000e+02
1.646012e-03 6.023824e-36 1.000000e+02
1.676675e-03 5.800233e-36 1.000000e+02
1.707910e-03 5.583909e-36 1.000000e+02
1.739726e-03 5.375315e-36 1.000000e+02
1.772136e-03 5.174817e-36 1.000000e+02
1.805149e-03 4.982696e-36 1.000000e+02
1.838777e-03 4.799157e-36 1.000000e+02
1.873032e-03 4.624337e-36 1.000000e+02
1.907924e-03 4.458317e-36 1.000000e+02
1.943467e-03 4.301125e-36 1.000000e+02
1.979672e-03 4.152750e-36 1.000000e+02
2.016551e-03 4.013145e-36 1.000000e+02
2.054117e-03 3.882238e-36 1.000000e+02
2.092383e-03 3.759936e-36 1.000000e+02
2.131362e-03 3.646135e-36 1.000000e+02
2.171068e-03 3.540722e-36 1.000000e+02
2.211512e-03 3.443582e-36 1.000000e+02
2.252711e-03 3.354605e-36 1.000000e+02
2.294676e-03 3.273692e-36 1.000000e+02
2.337424e-03 3.200753e-36 1.000000e+02
2.380968e-03 3.135723e-36 1.000000e+02
2.425323e-03 3.078554e-36 1.000000e+02
2.470504e-03 3.029233e-36 1.000000e+02
2.516527e-03 2.987776e-36 1.000000e+02
2.563407e-03 2.954240e-36 1.000000e+02
2.611161e-03 2.928725e-36 1.000000e+02
2.659804e-03 2.911384e-36 1.000000e+02
2.709354e-03 2.902426e-36 1.000000e+02
2.759826e-03 2.902128e-36 1.000000e+02
2.811239e-03 2.910841e-36 1.000000e+02
2.863610e-03 2.929003e-36 1.000000e+02
2.916956e-03 2.957150e-36 1.000000e+02
2.971296e-03 2.995933e-36 1.000000e+02
3.026648e-03 3.046088e-36 1.000000e+02
3.083031e-03 3.107401e-36 1.000000e+02
3.140465e-03 3.178528e-36 1.000000e+02
3.198969e-03 3.257996e-36 1.000000e+02
3.258562e-03 3.344202e-36 1.000000e+02
3.319266e-03 3.435372e-36 1.000000e+02
3.381101e-03 3.529525e-36 1.000000e+02
3.444087e-03 3.624445e-36 1.000000e+02
3.508247e-03 3.717676e-36 1.000000e+02
3.573602e-03 3.806520e-36 1.000000e+02
3.640175e-03 3.888059e-36 1.000000e+02
3.707988e-03 3.959203e-36 1.000000e+02
3.777064e-03 4.016748e-36 1.000000e+02
3.847427e-03 4.057467e-36 1.000000e+02
3.919100e-03 4.078223e-36 1.000000e+02
3.992109e-03 4.076094e-36 1.000000e+02
4.066478e-03 4.051133e-36 1.000000e+02
4.142232e-03 4.018074e-36 1.000000e+02
4.219398e-03 3.996223e-36 1.000000e+02
4.298001e-03 4.004552e-36 1.000000e+02
4.378069e-03 4.062680e-36 1.000000e+02
4.459628e-03 4.192832e-36 1.000000e+02
4.542706e-03 4.423037e-36 1.000000e+02
4.627332e-03 4.792188e-36 1.000000e+02
4.713535e-03 5.358327e-36 1.000000e+02
4.801343e-03 6.212819e-36 1.000000e+02
4.890787e-03 7.505752e-36 1.000000e+02
4.981898e-03 9.493528e-36 1.000000e+02
5.074705e-03 1.262135e-35 1.000000e+02
5.169242e-03 1.759861e-35 1.000000e+02
5.265540e-03 2.561001e-35 1.000000e+02
5.363631e-03 3.870438e-35 1.000000e+02
5.463550e-03 6.044900e-35 1.000000e+02
5.565331e-03 9.708598e-35 1.000000e+02
5.669007e-03 1.595593e-34 1.000000e+02
5.774615e-03 2.670211e-34 1.000000e+02
5.882190e-03 4.527796e-34 1.000000e+02
5.991770e-03 7.741150e-34 1.000000e+02
6.103390e-03 1.329267e-33 1.000000e+02
6.217090e-03 2.295474e-33 1.000000e+02
6.332908e-03 3.998123e-33 1.000000e+02
6.450884e-03 7.044223e-33 1.000000e+02
6.571058e-03 1.259137e-32 1.000000e+02
6.693470e-03 2.290056e-32 1.000000e+02
6.818162e-03 4.250321e-32 1.000000e+02
6.945178e-03 8.073656e-32 1.000000e+02
7.074559e-03 1.573946e-31 1.000000e+02
7.206351e-03 3.149162e-31 1.000000e+02
7.340598e-03 6.452431e-31 1.000000e+02
7.477346e-03 1.350778e-30 1.000000e+02
7.616642e-03 2.882605e-30 1.000000e+02
7.758532e-03 6.256565e-30 1.000000e+02
7.903066e-03 1.377987e-29 1.000000e+02
8.050292e-03 3.073004e-29 1.000000e+02
8.200261e-03 6.961834e-29 1.000000e+02
8.353023e-03 1.621046e-28 1.000000e+02
8.508632e-03 3.927825e-28 1.000000e+02
8.667139e-03 1.002693e-27 1.000000e+02
8.828599e-03 2.730342e-27 1.000000e+02
8.993067e-03 8.029215e-27 1.000000e+02
9.160598e-03 2.558826e-26 1.000000e+02
9.331251e-03 8.516840e-26 1.000000e+02
9.505083e-03 2.820814e-25 1.000000e+02
9.682153e-03 8.857602e-25 1.000000e+02
9.862522e-03 2.512415e-24 1.000000e+02
1.004625e-02 6.134747e-24 1.000000e+02
1.023340e-02 1.266768e-23 1.000000e+02
1.042404e-02 2.304805e-23 1.000000e+02
1.061823e-02 3.876034e-23 1.000000e+02
1.081604e-02 6.320285e-23 1.000000e+02
1.101753e-02 1.048235e-22 1.000000e+02
1.122277e-02 1.830357e-22 1.000000e+02
1.143184e-02 3.342159e-22 1.000000e+02
1.164481e-02 6.288334e-22 1.000000e+02
1.186174e-02 1.201336e-21 1.000000e+02
1.208271e-02 2.296612e-21 1.000000e+02
1.230780e-02 4.362769e-21 1.000000e+02
1.253708e-02 8.264824e-21 1.000000e+02
1.277063e-02 1.568156e-20 1.000000e+02
1.300854e-02 2.993066e-20 1.000000e+02
1.325087e-02 5.765474e-20 1.000000e+02
1.349772e-02 1.120172e-19 1.000000e+02
1.374917e-02 2.191929e-19 1.000000e+02
1.400531e-02 4.313426e-19 1.000000e+02
1.426621e-02 8.526307e-19 1.000000e+02
1.453198e-02 1.692815e-18 1.000000e+02
1.480269e-02 3.376352e-18 1.000000e+02
1.507845e-02 6.766346e-18 1.000000e+02
1.535935e-02 1.362516e-17 1.000000e+02
1.564548e-02 2.756163e-17 1.000000e+02
1.593694e-02 5.599211e-17 1.000000e+02
1.623382e-02 1.142046e-16 1.000000e+02
1.653624e-02 2.337780e-16 1.000000e+02
1.684430e-02 4.800562e-16 1.000000e+02
1.715809e-02 9.884484e-16 1.000000e+02
1.747773e-02 2.039834e-15 1.000000e+02
1.780332e-02 4.217156e-15 1.000000e+02
1.813498e-02 8.730439e-15 1.000000e+02
1.847281e-02 1.809413e-14 1.000000e+02
1.881694e-02 3.754295e-14 1.000000e+02
1.916748e-02 7.798651e-14 1.000000e+02
1.952456e-02 1.621893e-13 1.000000e+02
1.988828e-02 3.377129e-13 1.000000e+02
2.025878e-02 7.039990e-13 1.000000e+02
2.063618e-02 1.467921e-12 1.000000e+02
2.102061e-02 3.057231e-12 1.000000e+02
2.141220e-02 6.350876e-12 1.000000e+02
2.181109e-02 1.314027e-11 1.000000e+02
2.221741e-02 2.704117e-11 1.000000e+02
2.263130e-02 5.526911e-11 1.000000e+02
2.305289e-02 1.120368e-10 1.000000e+02
2.348235e-02 2.249290e-10 1.000000e+02
2.391980e-02 4.466033e-10 1.000000e+02
2.436540e-02 8.757407e-10 1.000000e+02
2.481930e-02 1.693525e-09 1.000000e+02
2.528166e-02 3.225555e-09 1.000000e+02
2.575263e-02 6.052918e-09 1.000000e+02
2.623238e-02 1.120893e-08 1.000000e+02
2.672106e-02 2.051673e-08 1.000000e+02
2.721885e-02 3.717933e-08 1.000000e+02
2.772591e-02 6.681122e-08 1.000000e+02
2.824241e-02 1.192496e-07 1.000000e+02
2.876854e-02 2.117529e-07 1.000000e+02
2.930447e-02 3.746895e-07 1.000000e+02
2.985038e-02 6.617421e-07 1.000000e+02
3.040646e-02 1.167641e-06 1.000000e+02
3.097291e-02 2.048223e-06 1.000000e+02
3.154990e-02 3.542642e-06 1.000000e+02
3.213764e-02 5.992119e-06 1.000000e+02
3.273634e-02 9.830092e-06 1.000000e+02
3.334618e-02 1.551242e-05 1.000000e+02
3.396739e-02 2.335430e-05 1.000000e+02
3.460016e-02 3.326907e-05 1.000000e+02
3.524473e-02 4.447560e-05 1.000000e+02
3.590130e-02 5.533894e-05 1.000000e+02
3.657011e-02 6.356072e-05 1.000000e+02
3.725137e-02 6.683692e-05 1.000000e+02
3.794533e-02 6.381673e-05 1.000000e+02
3.865221e-02 5.487367e-05 1.000000e+02
3.937226e-02 4.214302e-05 1.000000e+02
4.010573e-02 2.867130e-05 1.000000e+02
4.085286e-02 1.728129e-05 1.000000e+02
4.161391e-02 9.433032e-06 1.000000e+02
4.238913e-02 4.783534e-06 1.000000e+02
4.317880e-02 2.311774e-06 1.000000e+02
4.398317e-02 1.092238e-06 1.000000e+02
4.480254e-02 5.175363e-07 1.000000e+02
4.563716e-02 2.522856e-07 1.000000e+02
4.648734e-02 1.297922e-07 1.000000e+02
4.735335e-02 7.229121e-08 1.000000e+02
4.823549e-02 4.471773e-08 1.000000e+02
4.913407e-02 3.151429e-08 1.000000e+02
5.004939e-02 2.595643e-08 1.000000e+02
5.098176e-02 2.538581e-08 1.000000e+02
5.193150e-02 2.898739e-08 1.000000e+02
5.289893e-02 3.773393e-08 1.000000e+02
5.388438e-02 5.467545e-08 1.000000e+02
5.488820e-02 8.610389e-08 1.000000e+02
5.591071e-02 1.438984e-07 1.000000e+02
5.695227e-02 2.491866e-07 1.000000e+02
5.801323e-02 4.365778e-07 1.000000e+02
5.909396e-02 7.556131e-07 1.000000e+02
6.019482e-02 1.261488e-06 1.000000e+02
6.131619e-02 2.000167e-06 1.000000e+02
6.245845e-02 3.025015e-06 1.000000e+02
6.362198e-02 4.395475e-06 1.000000e+02
6.480720e-02 6.180746e-06 1.000000e+02
6.601449e-02 8.471726e-06 1.000000e+02
6.724427e-02 1.140088e-05 1.000000e+02
6.849697e-02 1.517329e-05 1.000000e+02
6.977300e-02 2.011570e-05 1.000000e+02
7.107280e-02 2.673347e-05 1.000000e+02
7.239681e-02 3.562284e-05 1.000000e+02
7.374549e-02 4.748191e-05 1.000000e+02
7.511929e-02 6.315732e-05 1.000000e+02
7.651869e-02 8.363432e-05 1.000000e+02
7.794416e-02 1.099968e-04 1.000000e+02
7.939618e-02 1.433442e-04 1.000000e+02
8.087525e-02 1.846328e-04 1.000000e+02
8.238187e-02 2.340916e-04 1.000000e+02
8.391656e-02 2.905854e-04 1.000000e+02
8.547985e-02 3.512525e-04 1.000000e+02
8.707225e-02 4.112161e-04 1.000000e+02
8.869432e-02 4.637380e-04 1.000000e+02
9.034660e-02 5.010621e-04 1.000000e+02
9.202967e-02 5.198637e-04 1.000000e+02
9.374409e-02 5.277401e-04 1.000000e+02
9.549045e-02 5.352847e-04 1.000000e+02
9.726934e-02 5.539685e-04 1.000000e+02
9.908137e-02 5.973406e-04 1.000000e+02
1.009272e-01 6.847666e-04 1.000000e+02
1.028073e-01 8.356745e-04 1.000000e+02
1.047225e-01 1.066941e-03 1.000000e+02
1.066734e-01 1.399367e-03 1.000000e+02
1.086606e-01 1.851362e-03 1.000000e+02
1.106848e-01 2.426404e-03 1.000000e+02
1.127468e-01 3.120878e-03 1.000000e+02
1.148472e-01 3.955326e-03 1.000000e+02
1.169866e-01 4.965072e-03 1.000000e+02
1.191660e-01 6.205150e-03 1.000000e+02
1.213859e-01 7.758712e-03 1.000000e+02
1.236472e-01 9.717077e-03 1.000000e+02
1.259506e-01 1.217042e-02 1.000000e+02
1.282970e-01 1.521907e-02 1.000000e+02
1.306870e-01 1.897022e-02 1.000000e+02
1.331216e-01 2.353241e-02 1.000000e+02
1.356015e-01 2.900776e-02 1.000000e+02
1.381276e-01 3.547828e-02 1.000000e+02
1.407008e-01 4.299017e-02 1.000000e+02
1.433219e-01 5.166080e-02 1.000000e+02
1.459919e-01 6.190535e-02 1.000000e+02
1.487115e-01 7.441679e-02 1.000000e+02
1.514819e-01 9.025631e-02 1.000000e+02
1.543038e-01 1.105125e-01 1.000000e+02
1.571784e-01 1.360480e-01 1.000000e+02
1.601064e-01 1.676732e-01 1.000000e+02
1.630891e-01 2.061659e-01 1.000000e+02
1.661273e-01 2.527483e-01 1.000000e+02
1.692220e-01 3.089538e-01 1.000000e+02
1.723745e-01 3.765728e-01 1.000000e+02
1.755856e-01 4.576887e-01 1.000000e+02
1.788566e-01 5.547194e-01 1.000000e+02
1.821885e-01 6.704749e-01 1.000000e+02
1.855825e-01 8.083935e-01 1.000000e+02
1.890397e-01 9.727162e-01 1.000000e+02
1.925614e-01 1.168600e+00 1.000000e+02
1.961486e-01 1.402347e+00 1.000000e+02
1.998026e-01 1.681697e+00 1.000000e+02
2.035248e-01 2.016056e+00 1.000000e+02
2.073162e-01 2.416131e+00 1.000000e+02
2.111783e-01 2.894378e+00 1.000000e+02
2.151123e-01 3.465460e+00 1.000000e+02
2.191197e-01 4.146593e+00 1.000000e+02
2.232016e-01 4.957933e+00 1.000000e+02
2.273597e-01 5.923013e+00 1.000000e+02
2.315951e-01 7.069217e+00 1.000000e+02
2.359095e-01 8.428312e+00 1.000000e+02
2.403043e-01 1.003701e+01 1.000000e+02
2.447809e-01 1.193760e+01 1.000000e+02
2.493409e-01 1.417855e+01 1.000000e+02
2.539859e-01 1.681553e+01 1.000000e+02
2.587174e-01 1.991416e+01 1.000000e+02
2.635371e-01 2.355118e+01 1.000000e+02
2.684465e-01 2.781562e+01 1.000000e+02
2.734474e-01 3.281083e+01 1.000000e+02
2.785414e-01 3.865666e+01 1.000000e+02
2.837304e-01 4.549217e+01 1.000000e+02
2.890160e-01 5.347869e+01 1.000000e+02
2.944000e-01 6.280341e+01 1.000000e+02
2.998844e-01 7.368354e+01 1.000000e+02
3.054710e-01 8.636965e+01 1.000000e+02
3.111616e-01 1.011438e+02 1.000000e+02
3.169582e-01 1.183259e+02 1.000000e+02
3.228628e-01 1.382795e+02 1.000000e+02
3.288774e-01 1.614167e+02 1.000000e+02
3.350041e-01 1.882030e+02 1.000000e+02
3.412449e-01 2.191629e+02 1.000000e+02
3.476019e-01 2.548854e+02 1.000000e+02
3.540774e-01 2.960319e+02 1.000000e+02
3.606735e-01 3.433739e+02 1.000000e+02
3.673925e-01 3.978143e+02 1.000000e+02
3.742366e-01 4.603920e+02 1.000000e+02
3.812083e-01 5.323035e+02 1.000000e+02
3.883098e-01 6.149290e+02 1.000000e+02
3.955436e-01 7.098631e+02 1.000000e+02
4.029122e-01 8.189489e+02 1.000000e+02
4.104181e-01 9.442120e+02 1.000000e+02
4.180637e-01 1.087786e+03 1.000000e+02
4.258518e-01 1.251999e+03 1.000000e+02
4.337850e-01 1.439388e+03 1.000000e+02
4.418660e-01 1.652687e+03 1.000000e+02
4.500975e-01 1.894821e+03 1.000000e+02
4.584824e-01 2.169014e+03 1.000000e+02
4.670234e-01 2.479265e+03 1.000000e+02
4.757236e-01 2.830241e+03 1.000000e+02
4.845859e-01 3.227287e+03 1.000000e+02
4.936132e-01 3.676539e+03 1.000000e+02
5.028087e-01 4.185057e+03 1.000000e+02
5.121755e-01 4.760648e+03 1.000000e+02
5.217169e-01 5.411553e+03 1.000000e+02
5.314359e-01 6.146852e+03 1.000000e+02
5.413360e-01 6.976577e+03 1.000000e+02
5.514206e-01 7.911787e+03 1.000000e+02
5.616930e-01 8.964643e+03 1.000000e+02
5.721568e-01 1.014849e+04 1.000000e+02
5.828155e-01 1.147794e+04 1.000000e+02
5.936727e-01 1.296892e+04 1.000000e+02
6.047322e-01 1.463880e+04 1.000000e+02
6.159978e-01 1.650680e+04 1.000000e+02
6.274732e-01 1.859443e+04 1.000000e+02
6.391624e-01 2.092536e+04 1.000000e+02
6.510694e-01 2.352557e+04 1.000000e+02
6.631981e-01 2.642360e+04 1.000000e+02
6.755528e-01 2.965077e+04 1.000000e+02
6.881377e-01 3.324139e+04 1.000000e+02
7.009570e-01 3.723309e+04 1.000000e+02
7.140151e-01 4.166692e+04 1.000000e+02
7.273165e-01 4.658714e+04 1.000000e+02
7.408657e-01 5.204174e+04 1.000000e+02
7.546673e-01 5.808280e+04 1.000000e+02
7.687260e-01 6.476675e+04 1.000000e+02
7.830465e-01 7.215465e+04 1.000000e+02
7.976339e-01 8.031248e+04 1.000000e+02
8.124930e-01 8.931150e+04 1.000000e+02
8.276289e-01 9.922902e+04 1.000000e+02
8.430468e-01 1.101487e+05 1.000000e+02
8.587519e-01 1.221606e+05 1.000000e+02
8.747496e-01 1.353619e+05 1.000000e+02
8.910453e-01 1.498573e+05 1.000000e+02
9.076446e-01 1.657590e+05 1.000000e+02
9.245531e-01 1.831869e+05 1.000000e+02
9.417766e-01 2.022687e+05 1.000000e+02
9.593209e-01 2.231402e+05 1.000000e+02
9.771921e-01 2.459463e+05 1.000000e+02
9.953962e-01 2.708410e+05 1.000000e+02
1.013939e+00 2.979880e+05 1.000000e+02
1.032828e+00 3.275623e+05 1.000000e+02
1.052069e+00 3.597509e+05 1.000000e+02
1.071668e+00 3.947521e+05 1.000000e+02
1.091632e+00 4.327764e+05 1.000000e+02
1.111968e+00 4.740467e+05 1.000000e+02
1.132683e+00 5.187989e+05 1.000000e+02
1.153783e+00 5.672821e+05 1.000000e+02
1.175277e+00 6.197594e+05 1.000000e+02
1.197171e+00 6.765084e+05 1.000000e+02
1.219473e+00 7.378210e+05 1.000000e+02
1.242191e+00 8.040046e+05 1.000000e+02
1.265332e+00 8.753834e+05 1.000000e+02
1.288904e+00 9.523155e+05 1.000000e+02
1.312915e+00 1.035194e+06 1.000000e+02
1.337373e+00 1.124442e+06 1.000000e+02
1.362287e+00 1.220513e+06 1.000000e+02
1.387665e+00 1.323895e+06 1.000000e+02
1.413516e+00 1.435114e+06 1.000000e+02
1.439848e+00 1.554736e+06 1.000000e+02
1.466671e+00 1.683373e+06 1.000000e+02
1.493993e+00 1.821684e+06 1.000000e+02
1.521825e+00 1.970361e+06 1.000000e+02
1.550175e+00 2.129951e+06 1.000000e+02
1.579053e+00 2.300898e+06 1.000000e+02
1.608469e+00 2.483601e+06 1.000000e+02
1.638434e+00 2.678403e+06 1.000000e+02
1.668956e+00 2.885573e+06 1.000000e+02
1.700047e+00 3.105296e+06 1.000000e+02
1.731717e+00 3.337656e+06 1.000000e+02
1.763977e+00 3.582628e+06 1.000000e+02
1.796838e+00 3.840480e+06 1.000000e+02
1.830312e+00 4.111986e+06 1.000000e+02
1.864409e+00 4.398071e+06 1.000000e+02
1.899141e+00 4.699801e+06 1.000000e+02
1.934520e+00 5.018403e+06 1.000000e+02
1.970558e+00 5.355287e+06 1.000000e+02
2.007267e+00 5.712063e+06 1.000000e+02
2.044661e+00 6.090275e+06 1.000000e+02
2.082751e+00 6.490925e+06 1.000000e+02
2.121550e+00 6.914923e+06 1.000000e+02
2.161073e+00 7.363167e+06 1.000000e+02
2.201331e+00 7.836531e+06 1.000000e+02
2.242340e+00 8.335861e+06 1.000000e+02
2.284112e+00 8.861960e+06 1.000000e+02
2.326663e+00 9.415585e+06 1.000000e+02
2.370006e+00 9.997431e+06 1.000000e+02
2.414157e+00 1.060812e+07 1.000000e+02
2.459130e+00 1.124820e+07 1.000000e+02
2.504942e+00 1.191811e+07 1.000000e+02
2.551606e+00 1.261833e+07 1.000000e+02
2.599140e+00 1.334971e+07 1.000000e+02
2.647559e+00 1.411319e+07 1.000000e+02
2.696881e+00 1.490973e+07 1.000000e+02
2.747121e+00 1.574031e+07 1.000000e+02
2.798297e+00 1.660595e+07 1.000000e+02
2.850426e+00 1.750769e+07 1.000000e+02
2.903527e+00 1.844661e+07 1.000000e+02
2.957617e+00 1.942382e+07 1.000000e+02
3.012714e+00 2.044049e+07 1.000000e+02
3.068838e+00 2.149767e+07 1.000000e+02
3.126007e+00 2.259622e+07 1.000000e+02
3.184242e+00 2.373692e+07 1.000000e+02
3.243561e+00 2.492050e+07 1.000000e+02
3.303985e+00 2.614768e+07 1.000000e+02
3.365535e+00 2.741910e+07 1.000000e+02
3.428231e+00 2.873538e+07 1.000000e+02
3.492096e+00 3.009706e+07 1.000000e+02
3.557150e+00 3.150468e+07 1.000000e+02
3.623416e+00 3.295879e+07 1.000000e+02
3.690917e+00 3.445999e+07 1.000000e+02
3.759675e+00 3.600883e+07 1.000000e+02
3.829714e+00 3.760581e+07 1.000000e+02
3.901058e+00 3.925141e+07 1.000000e+02
3.973730e+00 4.094607e+07 1.000000e+02
4.047757e+00 4.269019e+07 1.000000e+02
4.123163e+00 4.448407e+07 1.000000e+02
4.199973e+00 4.632791e+07 1.000000e+02
4.278214e+00 4.822185e+07 1.000000e+02
4.357913e+00 5.016599e+07 1.000000e+02
4.439097e+00 5.216033e+07 1.000000e+02
4.521792e+00 5.420485e+07 1.000000e+02
4.606029e+00 5.629943e+07 1.000000e+02
4.691835e+00 5.844389e+07 1.000000e+02
4.779239e+00 6.063799e+07 1.000000e+02
4.868271e+00 6.288141e+07 1.000000e+02
4.958962e+00 6.517376e+07 1.000000e+02
5.051342e+00 6.751458e+07 1.000000e+02
5.145444e+00 6.990328e+07 1.000000e+02
5.241298e+00 7.233912e+07 1.000000e+02
5.338938e+00 7.482129e+07 1.000000e+02
5.438397e+00 7.734887e+07 1.000000e+02
5.539709e+00 7.992088e+07 1.000000e+02
5.642908e+00 8.253620e+07 1.000000e+02
5.748030e+00 8.519365e+07 1.000000e+02
5.855110e+00 8.789195e+07 1.000000e+02
5.964185e+00 9.062972e+07 1.000000e+02
6.075292e+00 9.340547e+07 1.000000e+02
6.188468e+00 9.621747e+07 1.000000e+02
6.303753e+00 9.906375e+07 1.000000e+02
6.421186e+00 1.019422e+08 1.000000e+02
6.540806e+00 1.048506e+08 1.000000e+02
6.662655e+00 1.077867e+08 1.000000e+02
6.786773e+00 1.107479e+08 1.000000e+02
6.913204e+00 1.137316e+08 1.000000e+02
7.041990e+00 1.167352e+08 1.000000e+02
7.173175e+00 1.197558e+08 1.000000e+02
7.306804e+00 1.227905e+08 1.000000e+02
7.442922e+00 1.258362e+08 1.000000e+02
7.581576e+00 1.288896e+08 1.000000e+02
7.722814e+00 1.319476e+08 1.000000e+02
7.866682e+00 1.350067e+08 1.000000e+02
8.013230e+00 1.380635e+08 1.000000e+02
8.162509e+00 1.411142e+08 1.000000e+02
8.314568e+00 1.441549e+08 1.000000e+02
8.469460e+00 1.471814e+08 1.000000e+02
8.627237e+00 1.501895e+08 1.000000e+02
8.787954e+00 1.531748e+08 1.000000e+02
8.951665e+00 1.561328e+08 1.000000e+02
9.118425e+00 1.590590e+08 1.000000e+02
9.288292e+00 1.619488e+08 1.000000e+02
9.461324e+00 1.647975e+08 1.000000e+02
9.637579e+00 1.676005e+08 1.000000e+02
9.817117e+00 1.703529e+08 1.000000e+02
1.000000e+01 1.730500e+08 1.000000e+02
