# C13 + He3 > C12 + a   [C13_He3__C12_a]   ref=TALYS2
# detailed balance: alpha=2.9513 beta=0 gamma=-181.394  Q=15.6313
# T9                 rate                error
1.000000e-03 1.000000e-35 1.000000e+02
1.018629e-03 9.995694e-36 1.000000e+02
1.037605e-03 9.991768e-36 1.000000e+02
1.056935e-03 9.988210e-36 1.000000e+02
1.076624e-03 9.985007e-36 1.000000e+02
1.096681e-03 9.982147e-36 1.000000e+02
1.117111e-03 9.979618e-36 1.000000e+02
1.137921e-03 9.977408e-36 1.000000e+02
1.159120e-03 9.975503e-36 1.000000e+02
1.180713e-03 9.973892e-36 1.000000e+02
1.202708e-03 9.972563e-36 1.000000e+02
1.225114e-03 9.971504e-36 1.000000e+02
1.247936e-03 9.970702e-36 1.000000e+02
1.271184e-03 9.970145e-36 1.000000e+02
1.294865e-03 9.969821e-36 1.000000e+02
1.318987e-03 9.969719e-36 1.000000e+02
1.343558e-03 9.969826e-36 1.000000e+02
1.368587e-03 9.970129e-36 1.000000e+02
1.394083e-03 9.970618e-36 1.000000e+02
1.420053e-03 9.971279e-36 1.000000e+02
1.446507e-03 9.972102e-36 1.000000e+02
1.473454e-03 9.973073e-36 1.000000e+02
1.500903e-03 9.974182e-36 1.000000e+02
1.528864e-03 9.975415e-36 1.000000e+02
1.557345e-03 9.976762e-36 1.000000e+02
1.586357e-03 9.978209e-36 1.000000e+02
1.615909e-03 9.979745e-36 1.000000e+02
1.646012e-03 9.981359e-36 1.000000e+02
1.676675e-03 9.983037e-36 1.000000e+02
1.707910e-03 9.984768e-36 1.000000e+02
1.739726e-03 9.986539e-36 1.000000e+02
1.772136e-03 9.988340e-36 1.000000e+02
1.805149e-03 9.990157e-36 1.000000e+02
1.838777e-03 9.991979e-36 1.000000e+02
1.873032e-03 9.993793e-36 1.000000e+02
1.907924e-03 9.995588e-36 1.000000e+02
1.943467e-03 9.997352e-36 1.000000e+02
1.979672e-03 9.999071e-36 1.000000e+02
2.016551e-03 1.000074e-35 1.000000e+02
2.054117e-03 1.000233e-35 1.000000e+02
2.092383e-03 1.000385e-35 1.000000e+02
2.131362e-03 1.000527e-35 1.000000e+02
2.171068e-03 1.000659e-35 1.000000e+02
2.211512e-03 1.000779e-35 1.000000e+02
2.252711e-03 1.000887e-35 1.000000e+02
2.294676e-03 1.000980e-35 1.000000e+02
2.337424e-03 1.001058e-35 1.000000e+02
2.380968e-03 1.001120e-35 1.000000e+02
2.425323e-03 1.001164e-35 1.000000e+02
2.470504e-03 1.001189e-35 1.000000e+02
2.516527e-03 1.001194e-35 1.000000e+02
2.563407e-03 1.001177e-35 1.000000e+02
2.611161e-03 1.001138e-35 1.000000e+02
2.659804e-03 1.001075e-35 1.000000e+02
2.709354e-03 1.000988e-35 1.000000e+02
2.759826e-03 1.000874e-35 1.000000e+02
2.811239e-03 1.000733e-35 1.000000e+02
2.863610e-03 1.000563e-35 1.000000e+02
2.916956e-03 1.000363e-35 1.000000e+02
2.971296e-03 1.000133e-35 1.000000e+02
3.026648e-03 9.998703e-36 1.000000e+02
3.083031e-03 9.995817e-36 1.000000e+02
3.140465e-03 9.992793e-36 1.000000e+02
3.198969e-03 9.989759e-36 1.000000e+02
3.258562e-03 9.986844e-36 1.000000e+02
3.319266e-03 9.984176e-36 1.000000e+02
3.381101e-03 9.981882e-36 1.000000e+02
3.444087e-03 9.980089e-36 1.000000e+02
3.508247e-03 9.978927e-36 1.000000e+02
3.573602e-03 9.978521e-36 1.000000e+02
3.640175e-03 9.979001e-36 1.000000e+02
3.707988e-03 9.980493e-36 1.000000e+02
3.777064e-03 9.983128e-36 1.000000e+02
3.847427e-03 9.987032e-36 1.000000e+02
3.919100e-03 9.992337e-36 1.000000e+02
3.992109e-03 9.999173e-36 1.000000e+02
4.066478e-03 1.000757e-35 1.000000e+02
4.142232e-03 1.001698e-35 1.000000e+02
4.219398e-03 1.002669e-35 1.000000e+02
4.298001e-03 1.003594e-35 1.000000e+02
4.378069e-03 1.004400e-35 1.000000e+02
4.459628e-03 1.005013e-35 1.000000e+02
4.542706e-03 1.005359e-35 1.000000e+02
4.627332e-03 1.005362e-35 1.000000e+02
4.713535e-03 1.004951e-35 1.000000e+02
4.801343e-03 1.004050e-35 1.000000e+02
4.890787e-03 1.002587e-35 1.000000e+02
4.981898e-03 1.000492e-35 1.000000e+02
5.074705e-03 9.977124e-36 1.000000e+02
5.169242e-03 9.943244e-36 1.000000e+02
5.265540e-03 9.904606e-36 1.000000e+02
5.363631e-03 9.862526e-36 1.000000e+02
5.463550e-03 9.818303e-36 1.000000e+02
5.565331e-03 9.773214e-36 1.000000e+02
5.669007e-03 9.728516e-36 1.000000e+02
5.774615e-03 9.685443e-36 1.000000e+02
5.882190e-03 9.645206e-36 1.000000e+02
5.991770e-03 9.608999e-36 1.000000e+02
6.103390e-03 9.577710e-36 1.000000e+02
6.217090e-03 9.550777e-36 1.000000e+02
6.332908e-03 9.527198e-36 1.000000e+02
6.450884e-03 9.505985e-36 1.000000e+02
6.571058e-03 9.486164e-36 1.000000e+02
6.693470e-03 9.466765e-36 1.000000e+02
6.818162e-03 9.446831e-36 1.000000e+02
6.945178e-03 9.425409e-36 1.000000e+02
7.074559e-03 9.401710e-36 1.000000e+02
7.206351e-03 9.377489e-36 1.000000e+02
7.340598e-03 9.356566e-36 1.000000e+02
7.477346e-03 9.342789e-36 1.000000e+02
7.616642e-03 9.340000e-36 1.000000e+02
7.758532e-03 9.352063e-36 1.000000e+02
7.903066e-03 9.382925e-36 1.000000e+02
8.050292e-03 9.436552e-36 1.000000e+02
8.200261e-03 9.509597e-36 1.000000e+02
8.353023e-03 9.587131e-36 1.000000e+02
8.508632e-03 9.652787e-36 1.000000e+02
8.667139e-03 9.689787e-36 1.000000e+02
8.828599e-03 9.681284e-36 1.000000e+02
8.993067e-03 9.611004e-36 1.000000e+02
9.160598e-03 9.477202e-36 1.000000e+02
9.331251e-03 9.337696e-36 1.000000e+02
9.505083e-03 9.263804e-36 1.000000e+02
9.682153e-03 9.325469e-36 1.000000e+02
9.862522e-03 9.598988e-36 1.000000e+02
1.004625e-02 1.018070e-35 1.000000e+02
1.023340e-02 1.115536e-35 1.000000e+02
1.042404e-02 1.253979e-35 1.000000e+02
1.061823e-02 1.434374e-35 1.000000e+02
1.081604e-02 1.656009e-35 1.000000e+02
1.101753e-02 1.914062e-35 1.000000e+02
1.122277e-02 2.201915e-35 1.000000e+02
1.143184e-02 2.524247e-35 1.000000e+02
1.164481e-02 2.891198e-35 1.000000e+02
1.186174e-02 3.317164e-35 1.000000e+02
1.208271e-02 3.822217e-35 1.000000e+02
1.230780e-02 4.428705e-35 1.000000e+02
1.253708e-02 5.157264e-35 1.000000e+02
1.277063e-02 6.031878e-35 1.000000e+02
1.300854e-02 7.080857e-35 1.000000e+02
1.325087e-02 8.338903e-35 1.000000e+02
1.349772e-02 9.853717e-35 1.000000e+02
1.374917e-02 1.168698e-34 1.000000e+02
1.400531e-02 1.391740e-34 1.000000e+02
1.426621e-02 1.664525e-34 1.000000e+02
1.453198e-02 1.999599e-34 1.000000e+02
1.480269e-02 2.412910e-34 1.000000e+02
1.507845e-02 2.924901e-34 1.000000e+02
1.535935e-02 3.561948e-34 1.000000e+02
1.564548e-02 4.358339e-34 1.000000e+02
1.593694e-02 5.358752e-34 1.000000e+02
1.623382e-02 6.621710e-34 1.000000e+02
1.653624e-02 8.224597e-34 1.000000e+02
1.684430e-02 1.027023e-33 1.000000e+02
1.715809e-02 1.289585e-33 1.000000e+02
1.747773e-02 1.628573e-33 1.000000e+02
1.780332e-02 2.068878e-33 1.000000e+02
1.813498e-02 2.644329e-33 1.000000e+02
1.847281e-02 3.400934e-33 1.000000e+02
1.881694e-02 4.401389e-33 1.000000e+02
1.916748e-02 5.731845e-33 1.000000e+02
1.952456e-02 7.511319e-33 1.000000e+02
1.988828e-02 9.905106e-33 1.000000e+02
2.025878e-02 1.314434e-32 1.000000e+02
2.063618e-02 1.755857e-32 1.000000e+02
2.102061e-02 2.362195e-32 1.000000e+02
2.141220e-02 3.202022e-32 1.000000e+02
2.181109e-02 4.375432e-32 1.000000e+02
2.221741e-02 6.029921e-32 1.000000e+02
2.263130e-02 8.384990e-32 1.000000e+02
2.305289e-02 1.177063e-31 1.000000e+02
2.348235e-02 1.668818e-31 1.000000e+02
2.391980e-02 2.390762e-31 1.000000e+02
2.436540e-02 3.462487e-31 1.000000e+02
2.481930e-02 5.071894e-31 1.000000e+02
2.528166e-02 7.517426e-31 1.000000e+02
2.575263e-02 1.127174e-30 1.000000e+02
2.623238e-02 1.708555e-30 1.000000e+02
2.672106e-02 2.616201e-30 1.000000e+02
2.721885e-02 4.043948e-30 1.000000e+02
2.772591e-02 6.305514e-30 1.000000e+02
2.824241e-02 9.910695e-30 1.000000e+02
2.876854e-02 1.569078e-29 1.000000e+02
2.930447e-02 2.500516e-29 1.000000e+02
2.985038e-02 4.008184e-29 1.000000e+02
3.040646e-02 6.459258e-29 1.000000e+02
3.097291e-02 1.048123e-28 1.000000e+02
3.154990e-02 1.717124e-28 1.000000e+02
3.213764e-02 2.847876e-28 1.000000e+02
3.273634e-02 4.794469e-28 1.000000e+02
3.334618e-02 8.215425e-28 1.000000e+02
3.396739e-02 1.436679e-27 1.000000e+02
3.460016e-02 2.570987e-27 1.000000e+02
3.524473e-02 4.720850e-27 1.000000e+02
3.590130e-02 8.918486e-27 1.000000e+02
3.657011e-02 1.738131e-26 1.000000e+02
3.725137e-02 3.504005e-26 1.000000e+02
3.794533e-02 7.326686e-26 1.000000e+02
3.865221e-02 1.593240e-25 1.000000e+02
3.937226e-02 3.612900e-25 1.000000e+02
4.010573e-02 8.566412e-25 1.000000e+02
4.085286e-02 2.122765e-24 1.000000e+02
4.161391e-02 5.449397e-24 1.000000e+02
4.238913e-02 1.434622e-23 1.000000e+02
4.317880e-02 3.834144e-23 1.000000e+02
4.398317e-02 1.029770e-22 1.000000e+02
4.480254e-02 2.751390e-22 1.000000e+02
4.563716e-02 7.239410e-22 1.000000e+02
4.648734e-02 1.856917e-21 1.000000e+02
4.735335e-02 4.596416e-21 1.000000e+02
4.823549e-02 1.086883e-20 1.000000e+02
4.913407e-02 2.430423e-20 1.000000e+02
5.004939e-02 5.087636e-20 1.000000e+02
5.098176e-02 9.907837e-20 1.000000e+02
5.193150e-02 1.807750e-19 1.000000e+02
5.289893e-02 3.120989e-19 1.000000e+02
5.388438e-02 5.149177e-19 1.000000e+02
5.488820e-02 8.199222e-19 1.000000e+02
5.591071e-02 1.272607e-18 1.000000e+02
5.695227e-02 1.944465e-18 1.000000e+02
5.801323e-02 2.953846e-18 1.000000e+02
5.909396e-02 4.505622e-18 1.000000e+02
6.019482e-02 6.969361e-18 1.000000e+02
6.131619e-02 1.099943e-17 1.000000e+02
6.245845e-02 1.766330e-17 1.000000e+02
6.362198e-02 2.874197e-17 1.000000e+02
6.480720e-02 4.719786e-17 1.000000e+02
6.601449e-02 7.789458e-17 1.000000e+02
6.724427e-02 1.286737e-16 1.000000e+02
6.849697e-02 2.118788e-16 1.000000e+02
6.977300e-02 3.463533e-16 1.000000e+02
7.107280e-02 5.600353e-16 1.000000e+02
7.239681e-02 8.954914e-16 1.000000e+02
7.374549e-02 1.417595e-15 1.000000e+02
7.511929e-02 2.224256e-15 1.000000e+02
7.651869e-02 3.463027e-15 1.000000e+02
7.794416e-02 5.356271e-15 1.000000e+02
7.939618e-02 8.239517e-15 1.000000e+02
8.087525e-02 1.261788e-14 1.000000e+02
8.238187e-02 1.919648e-14 1.000000e+02
8.391656e-02 2.888527e-14 1.000000e+02
8.547985e-02 4.279493e-14 1.000000e+02
8.707225e-02 6.214559e-14 1.000000e+02
8.869432e-02 8.805857e-14 1.000000e+02
9.034660e-02 1.212073e-13 1.000000e+02
9.202967e-02 1.621467e-13 1.000000e+02
9.374409e-02 2.132437e-13 1.000000e+02
9.549045e-02 2.792696e-13 1.000000e+02
9.726934e-02 3.689275e-13 1.000000e+02
9.908137e-02 4.979885e-13 1.000000e+02
1.009272e-01 6.954042e-13 1.000000e+02
1.028073e-01 1.005774e-12 1.000000e+02
1.047225e-01 1.491561e-12 1.000000e+02
1.066734e-01 2.244293e-12 1.000000e+02
1.086606e-01 3.390283e-12 1.000000e+02
1.106848e-01 5.088232e-12 1.000000e+02
1.127468e-01 7.544797e-12 1.000000e+02
1.148472e-01 1.107420e-11 1.000000e+02
1.169866e-01 1.613142e-11 1.000000e+02
1.191660e-01 2.337974e-11 1.000000e+02
1.213859e-01 3.379601e-11 1.000000e+02
1.236472e-01 4.875019e-11 1.000000e+02
1.259506e-01 7.011318e-11 1.000000e+02
1.282970e-01 1.004499e-10 1.000000e+02
1.306870e-01 1.432310e-10 1.000000e+02
1.331216e-01 2.029412e-10 1.000000e+02
1.356015e-01 2.849218e-10 1.000000e+02
1.381276e-01 3.952079e-10 1.000000e+02
1.407008e-01 5.400207e-10 1.000000e+02
1.433219e-01 7.278400e-10 1.000000e+02
1.459919e-01 9.763175e-10 1.000000e+02
1.487115e-01 1.316202e-09 1.000000e+02
1.514819e-01 1.800088e-09 1.000000e+02
1.543038e-01 2.500059e-09 1.000000e+02
1.571784e-01 3.502784e-09 1.000000e+02
1.601064e-01 4.916785e-09 1.000000e+02
1.630891e-01 6.875644e-09 1.000000e+02
1.661273e-01 9.569426e-09 1.000000e+02
1.692220e-01 1.325644e-08 1.000000e+02
1.723745e-01 1.827951e-08 1.000000e+02
1.755856e-01 2.509155e-08 1.000000e+02
1.788566e-01 3.428811e-08 1.000000e+02
1.821885e-01 4.665028e-08 1.000000e+02
1.855825e-01 6.322094e-08 1.000000e+02
1.890397e-01 8.540269e-08 1.000000e+02
1.925614e-01 1.150789e-07 1.000000e+02
1.961486e-01 1.547902e-07 1.000000e+02
1.998026e-01 2.079812e-07 1.000000e+02
2.035248e-01 2.793146e-07 1.000000e+02
2.073162e-01 3.749319e-07 1.000000e+02
2.111783e-01 5.029519e-07 1.000000e+02
2.151123e-01 6.741271e-07 1.000000e+02
2.191197e-01 9.026601e-07 1.000000e+02
2.232016e-01 1.207257e-06 1.000000e+02
2.273597e-01 1.612480e-06 1.000000e+02
2.315951e-01 2.150471e-06 1.000000e+02
2.359095e-01 2.863149e-06 1.000000e+02
2.403043e-01 3.804967e-06 1.000000e+02
2.447809e-01 5.046386e-06 1.000000e+02
2.493409e-01 6.678189e-06 1.000000e+02
2.539859e-01 8.817058e-06 1.000000e+02
2.587174e-01 1.161421e-05 1.000000e+02
2.635371e-01 1.526509e-05 1.000000e+02
2.684465e-01 2.002147e-05 1.000000e+02
2.734474e-01 2.620731e-05 1.000000e+02
2.785414e-01 3.423907e-05 1.000000e+02
2.837304e-01 4.465166e-05 1.000000e+02
2.890160e-01 5.813160e-05 1.000000e+02
2.944000e-01 7.555950e-05 1.000000e+02
2.998844e-01 9.806434e-05 1.000000e+02
3.054710e-01 1.270891e-04 1.000000e+02
3.111616e-01 1.644582e-04 1.000000e+02
3.169582e-01 2.124773e-04 1.000000e+02
3.228628e-01 2.740560e-04 1.000000e+02
3.288774e-01 3.528547e-04 1.000000e+02
3.350041e-01 4.534634e-04 1.000000e+02
3.412449e-01 5.816186e-04 1.000000e+02
3.476019e-01 7.444644e-04 1.000000e+02
3.540774e-01 9.508765e-04 1.000000e+02
3.606735e-01 1.212023e-03 1.000000e+02
3.673925e-01 1.541996e-03 1.000000e+02
3.742366e-01 1.958497e-03 1.000000e+02
3.812083e-01 2.483762e-03 1.000000e+02
3.883098e-01 3.145759e-03 1.000000e+02
3.955436e-01 3.979697e-03 1.000000e+02
4.029122e-01 5.029937e-03 1.000000e+02
4.104181e-01 6.351258e-03 1.000000e+02
4.180637e-01 8.009963e-03 1.000000e+02
4.258518e-01 1.008686e-02 1.000000e+02
4.337850e-01 1.267995e-02 1.000000e+02
4.418660e-01 1.590729e-02 1.000000e+02
4.500975e-01 1.991010e-02 1.000000e+02
4.584824e-01 2.485831e-02 1.000000e+02
4.670234e-01 3.096497e-02 1.000000e+02
4.757236e-01 3.849369e-02 1.000000e+02
4.845859e-01 4.776907e-02 1.000000e+02
4.936132e-01 5.919171e-02 1.000000e+02
5.028087e-01 7.325712e-02 1.000000e+02
5.121755e-01 9.056936e-02 1.000000e+02
5.217169e-01 1.118506e-01 1.000000e+02
5.314359e-01 1.379737e-01 1.000000e+02
5.413360e-01 1.699928e-01 1.000000e+02
5.514206e-01 2.091778e-01 1.000000e+02
5.616930e-01 2.570556e-01 1.000000e+02
5.721568e-01 3.154569e-01 1.000000e+02
5.828155e-01 3.865712e-01 1.000000e+02
5.936727e-01 4.730104e-01 1.000000e+02
6.047322e-01 5.778823e-01 1.000000e+02
6.159978e-01 7.049000e-01 1.000000e+02
6.274732e-01 8.585138e-01 1.000000e+02
6.391624e-01 1.044028e+00 1.000000e+02
6.510694e-01 1.267754e+00 1.000000e+02
6.631981e-01 1.537197e+00 1.000000e+02
6.755528e-01 1.861269e+00 1.000000e+02
6.881377e-01 2.250541e+00 1.000000e+02
7.009570e-01 2.717542e+00 1.000000e+02
7.140151e-01 3.277085e+00 1.000000e+02
7.273165e-01 3.946588e+00 1.000000e+02
7.408657e-01 4.746545e+00 1.000000e+02
7.546673e-01 5.701040e+00 1.000000e+02
7.687260e-01 6.838332e+00 1.000000e+02
7.830465e-01 8.191527e+00 1.000000e+02
7.976339e-01 9.799343e+00 1.000000e+02
8.124930e-01 1.170701e+01 1.000000e+02
8.276289e-01 1.396736e+01 1.000000e+02
8.430468e-01 1.664201e+01 1.000000e+02
8.587519e-01 1.980269e+01 1.000000e+02
8.747496e-01 2.353277e+01 1.000000e+02
8.910453e-01 2.792906e+01 1.000000e+02
9.076446e-01 3.310376e+01 1.000000e+02
9.245531e-01 3.918650e+01 1.000000e+02
9.417766e-01 4.632660e+01 1.000000e+02
9.593209e-01 5.469599e+01 1.000000e+02
9.771921e-01 6.449232e+01 1.000000e+02
9.953962e-01 7.594241e+01 1.000000e+02
1.013939e+00 8.930617e+01 1.000000e+02
1.032828e+00 1.048818e+02 1.000000e+02
1.052069e+00 1.230106e+02 1.000000e+02
1.071668e+00 1.440827e+02 1.000000e+02
1.091632e+00 1.685431e+02 1.000000e+02
1.111968e+00 1.968985e+02 1.000000e+02
1.132683e+00 2.297253e+02 1.000000e+02
1.153783e+00 2.676782e+02 1.000000e+02
1.175277e+00 3.114998e+02 1.000000e+02
1.197171e+00 3.620310e+02 1.000000e+02
1.219473e+00 4.202230e+02 1.000000e+02
1.242191e+00 4.871499e+02 1.000000e+02
1.265332e+00 5.640243e+02 1.000000e+02
1.288904e+00 6.522298e+02 1.000000e+02
1.312915e+00 7.533449e+02 1.000000e+02
1.337373e+00 8.691608e+02 1.000000e+02
1.362287e+00 1.001711e+03 1.000000e+02
1.387665e+00 1.153303e+03 1.000000e+02
1.413516e+00 1.326558e+03 1.000000e+02
1.439848e+00 1.524451e+03 1.000000e+02
1.466671e+00 1.750362e+03 1.000000e+02
1.493993e+00 2.008133e+03 1.000000e+02
1.521825e+00 2.302089e+03 1.000000e+02
1.550175e+00 2.636756e+03 1.000000e+02
1.579053e+00 3.016897e+03 1.000000e+02
1.608469e+00 3.447604e+03 1.000000e+02
1.638434e+00 3.934278e+03 1.000000e+02
1.668956e+00 4.482572e+03 1.000000e+02
1.700047e+00 5.098333e+03 1.000000e+02
1.731717e+00 5.787512e+03 1.000000e+02
1.763977e+00 6.556086e+03 1.000000e+02
1.796838e+00 7.411188e+03 1.000000e+02
1.830312e+00 8.362049e+03 1.000000e+02
1.864409e+00 9.419236e+03 1.000000e+02
1.899141e+00 1.059481e+04 1.000000e+02
1.934520e+00 1.190260e+04 1.000000e+02
1.970558e+00 1.335852e+04 1.000000e+02
2.007267e+00 1.498092e+04 1.000000e+02
2.044661e+00 1.678978e+04 1.000000e+02
2.082751e+00 1.880460e+04 1.000000e+02
2.121550e+00 2.104606e+04 1.000000e+02
2.161073e+00 2.353646e+04 1.000000e+02
2.201331e+00 2.629968e+04 1.000000e+02
2.242340e+00 2.936123e+04 1.000000e+02
2.284112e+00 3.274826e+04 1.000000e+02
2.326663e+00 3.648949e+04 1.000000e+02
2.370006e+00 4.061519e+04 1.000000e+02
2.414157e+00 4.515709e+04 1.000000e+02
2.459130e+00 5.014824e+04 1.000000e+02
2.504942e+00 5.562284e+04 1.000000e+02
2.551606e+00 6.161723e+04 1.000000e+02
2.599140e+00 6.817260e+04 1.000000e+02
2.647559e+00 7.533343e+04 1.000000e+02
2.696881e+00 8.314712e+04 1.000000e+02
2.747121e+00 9.166422e+04 1.000000e+02
2.798297e+00 1.009386e+05 1.000000e+02
2.850426e+00 1.110275e+05 1.000000e+02
2.903527e+00 1.219920e+05 1.000000e+02
2.957617e+00 1.338971e+05 1.000000e+02
3.012714e+00 1.468120e+05 1.000000e+02
3.068838e+00 1.608090e+05 1.000000e+02
3.126007e+00 1.759616e+05 1.000000e+02
3.184242e+00 1.923460e+05 1.000000e+02
3.243561e+00 2.100419e+05 1.000000e+02
3.303985e+00 2.291318e+05 1.000000e+02
3.365535e+00 2.497014e+05 1.000000e+02
3.428231e+00 2.718392e+05 1.000000e+02
3.492096e+00 2.956365e+05 1.000000e+02
3.557150e+00 3.211875e+05 1.000000e+02
3.623416e+00 3.485912e+05 1.000000e+02
3.690917e+00 3.779502e+05 1.000000e+02
3.759675e+00 4.093705e+05 1.000000e+02
3.829714e+00 4.429611e+05 1.000000e+02
3.901058e+00 4.788343e+05 1.000000e+02
3.973730e+00 5.171049e+05 1.000000e+02
4.047757e+00 5.578909e+05 1.000000e+02
4.123163e+00 6.013119e+05 1.000000e+02
4.199973e+00 6.474892e+05 1.000000e+02
4.278214e+00 6.965463e+05 1.000000e+02
4.357913e+00 7.486080e+05 1.000000e+02
4.439097e+00 8.038005e+05 1.000000e+02
4.521792e+00 8.622514e+05 1.000000e+02
4.606029e+00 9.240888e+05 1.000000e+02
4.691835e+00 9.894412e+05 1.000000e+02
4.779239e+00 1.058437e+06 1.000000e+02
4.868271e+00 1.131206e+06 1.000000e+02
4.958962e+00 1.207874e+06 1.000000e+02
5.051342e+00 1.288569e+06 1.000000e+02
5.145444e+00 1.373415e+06 1.000000e+02
5.241298e+00 1.462532e+06 1.000000e+02
5.338938e+00 1.556038e+06 1.000000e+02
5.438397e+00 1.654047e+06 1.000000e+02
5.539709e+00 1.756669e+06 1.000000e+02
5.642908e+00 1.864009e+06 1.000000e+02
5.748030e+00 1.976169e+06 1.000000e+02
5.855110e+00 2.093241e+06 1.000000e+02
5.964185e+00 2.215315e+06 1.000000e+02
6.075292e+00 2.342471e+06 1.000000e+02
6.188468e+00 2.474782e+06 1.000000e+02
6.303753e+00 2.612308e+06 1.000000e+02
6.421186e+00 2.755104e+06 1.000000e+02
6.540806e+00 2.903211e+06 1.000000e+02
6.662655e+00 3.056663e+06 1.000000e+02
6.786773e+00 3.215478e+06 1.000000e+02
6.913204e+00 3.379668e+06 1.000000e+02
7.041990e+00 3.549228e+06 1.000000e+02
7.173175e+00 3.724140e+06 1.000000e+02
7.306804e+00 3.904366e+06 1.000000e+02
7.442922e+00 4.089855e+06 1.000000e+02
7.581576e+00 4.280537e+06 1.000000e+02
7.722814e+00 4.476327e+06 1.000000e+02
7.866682e+00 4.677124e+06 1.000000e+02
8.013230e+00 4.882810e+06 1.000000e+02
8.162509e+00 5.093248e+06 1.000000e+02
8.314568e+00 5.308293e+06 1.000000e+02
8.469460e+00 5.527780e+06 1.000000e+02
8.627237e+00 5.751530e+06 1.000000e+02
8.787954e+00 5.979347e+06 1.000000e+02
8.951665e+00 6.211016e+06 1.000000e+02
9.118425e+00 6.446308e+06 1.000000e+02
9.288292e+00 6.684975e+06 1.000000e+02
9.461324e+00 6.926755e+06 1.000000e+02
9.637579e+00 7.171368e+06 1.000000e+02
9.817117e+00 7.418520e+06 1.000000e+02
1.000000e+01 7.667900e+06 1.000000e+02
