# T[K] Gamma_nTOp[1/tau_n] Gamma_pTOn[1/tau_n]
# fingerprint_hash: 6bad0e27f982ab5c
# fingerprint: {"QED_corrections":true,"T_end_MeV":0.0001,"T_start_cosmo_MeV":40.0,"analytic_distortions":false,"delta_xi_nu":0.0,"finite_mass_corrections":true,"format_version":1,"incomplete_decoupling":true,"munuOverTnu":0.0,"nevo_file":null,"nevo_file_prefix":"NEVOPRIMAT","nevo_spectral_file":null,"radiative_corrections":true,"sampling_nTOp_per_decade":80,"spectral_distortions":true,"y_SZ":0.0}
1.160451812155007152e+06 9.999983223336005311e-01 0.000000000000000000e+00
1.194423774848161964e+06 9.999983189846387566e-01 0.000000000000000000e+00
1.229390259017469129e+06 9.999983156253720029e-01 0.000000000000000000e+00
1.265380379052794306e+06 9.999983122659177326e-01 0.000000000000000000e+00
1.302424101661148015e+06 9.999983089163588801e-01 0.000000000000000000e+00
1.340552270818068646e+06 9.999983055865394599e-01 0.000000000000000000e+00
1.379796633449450601e+06 9.999983022858536241e-01 0.000000000000000000e+00
1.420189865865226369e+06 9.999982990230239510e-01 0.000000000000000000e+00
1.461765600966865197e+06 9.999982958058812876e-01 0.000000000000000000e+00
1.504558456251363736e+06 9.999982926411452588e-01 0.000000000000000000e+00
1.548604062635073205e+06 9.999982895342149902e-01 0.000000000000000000e+00
1.593939094121308997e+06 9.999982864889721546e-01 0.000000000000000000e+00
1.640601298336490057e+06 9.999982835076002274e-01 0.000000000000000000e+00
1.688629527960198000e+06 9.999982805904291672e-01 0.000000000000000000e+00
1.738063773075376172e+06 9.999982777358020769e-01 0.000000000000000000e+00
1.788945194465545705e+06 9.999982749399740634e-01 0.000000000000000000e+00
1.841316157886786154e+06 9.999982721970398503e-01 0.000000000000000000e+00
1.895220269343055319e+06 9.999982694988963638e-01 0.000000000000000000e+00
1.950702411394152790e+06 9.999982668352355164e-01 0.000000000000000000e+00
2.007808780526589602e+06 9.999982641935731831e-01 0.000000000000000000e+00
2.066586925618517678e+06 9.999982615593069335e-01 0.000000000000000000e+00
2.127085787530675530e+06 9.999982589158048496e-01 0.000000000000000000e+00
2.189355739856346976e+06 9.999982562445212109e-01 0.000000000000000000e+00
2.253448630864310078e+06 9.999982535251338289e-01 0.000000000000000000e+00
2.319417826669610105e+06 9.999982507357031425e-01 0.000000000000000000e+00
2.387318255668149795e+06 9.999982478528450791e-01 0.000000000000000000e+00
2.457206454272137024e+06 9.999982448519171285e-01 0.000000000000000000e+00
2.529140613984378055e+06 9.999982417072079688e-01 0.000000000000000000e+00
2.603180629850666504e+06 9.999982383921330875e-01 0.000000000000000000e+00
2.679388150330644567e+06 9.999982348794272946e-01 0.000000000000000000e+00
2.757826628628573846e+06 9.999982311413322389e-01 0.000000000000000000e+00
2.838561375526837073e+06 9.999982271497765973e-01 0.000000000000000000e+00
2.921659613766088616e+06 9.999982228765440517e-01 0.000000000000000000e+00
3.007190534017433412e+06 9.999982182934293862e-01 0.000000000000000000e+00
3.095225352493126877e+06 9.999982133723778199e-01 0.000000000000000000e+00
3.185837370243811514e+06 9.999982080856090194e-01 0.000000000000000000e+00
3.279102034191722516e+06 9.999982024057240126e-01 0.000000000000000000e+00
3.375096999950573780e+06 9.999981963057933410e-01 0.000000000000000000e+00
3.473902196484477259e+06 9.999981897594292235e-01 0.000000000000000000e+00
3.575599892659796868e+06 9.999981827408397361e-01 0.000000000000000000e+00
3.680274765745237935e+06 9.999981752248657818e-01 0.000000000000000000e+00
3.788013971917252522e+06 9.999981671870045163e-01 0.000000000000000000e+00
3.898907218829544261e+06 9.999981586034163428e-01 0.000000000000000000e+00
4.013046840306964237e+06 9.999981494509194713e-01 0.000000000000000000e+00
4.130527873226046562e+06 9.999981397069739320e-01 0.000000000000000000e+00
4.251448136646280065e+06 9.999981293496523760e-01 0.000000000000000000e+00
4.375908313257860020e+06 9.999981183576042154e-01 0.000000000000000000e+00
4.504012033213795163e+06 9.999981067100114362e-01 0.000000000000000000e+00
4.635865960416263901e+06 9.999980943865363070e-01 0.000000000000000000e+00
4.771579881328906864e+06 9.999980813672668667e-01 0.000000000000000000e+00
4.911266796389074065e+06 9.999980676326559736e-01 0.000000000000000000e+00
5.055043014096228406e+06 9.999980531634578007e-01 0.000000000000000000e+00
5.203028247854683548e+06 9.999980379406629982e-01 0.000000000000000000e+00
5.355345715651390143e+06 9.999980219454317476e-01 0.000000000000000000e+00
5.512122242651852779e+06 9.999980051590272589e-01 0.000000000000000000e+00
5.673488366799422540e+06 9.999979875627476034e-01 0.000000000000000000e+00
5.839578447506044991e+06 9.999979691378605429e-01 0.000000000000000000e+00
6.010530777524835430e+06 9.999979498655366950e-01 0.000000000000000000e+00
6.186487698097817600e+06 9.999979297267865830e-01 0.000000000000000000e+00
6.367595717474482954e+06 9.999979087023972424e-01 0.000000000000000000e+00
6.554005632899941877e+06 9.999978867728723797e-01 0.000000000000000000e+00
6.745872656174374744e+06 9.999978639183726425e-01 0.000000000000000000e+00
6.943356542888090014e+06 9.999978401186598864e-01 0.000000000000000000e+00
7.146621725439900532e+06 9.999978153530412195e-01 0.000000000000000000e+00
7.355837449949711561e+06 9.999977896003182654e-01 0.000000000000000000e+00
7.571177917179075070e+06 9.999977628387340944e-01 0.000000000000000000e+00
7.792822427577140741e+06 9.999977350459267056e-01 0.000000000000000000e+00
8.020955530572948977e+06 9.999977061988805094e-01 0.000000000000000000e+00
8.255767178238056600e+06 9.999976762738818081e-01 0.000000000000000000e+00
8.497452883447702974e+06 9.999976452464749421e-01 0.000000000000000000e+00
8.746213882672000676e+06 9.999976130914208783e-01 0.000000000000000000e+00
9.002257303532974795e+06 9.999975797826547996e-01 0.000000000000000000e+00
9.265796337266651914e+06 9.999975452932474695e-01 0.000000000000000000e+00
9.537050416233910248e+06 9.999975095953670401e-01 0.000000000000000000e+00
9.816245396628113464e+06 9.999974726602397501e-01 0.000000000000000000e+00
1.010361374653128162e+07 9.999974344581142871e-01 0.000000000000000000e+00
1.039939473947557062e+07 9.999973949582242616e-01 0.000000000000000000e+00
1.070383465367138945e+07 9.999973541287527912e-01 0.000000000000000000e+00
1.101718697706771642e+07 9.999973119367967511e-01 0.000000000000000000e+00
1.133971261841546744e+07 9.999972683483309144e-01 0.000000000000000000e+00
1.167168012450993806e+07 9.999972233281729794e-01 0.000000000000000000e+00
1.201336590379273519e+07 9.999971768399473770e-01 0.000000000000000000e+00
1.236505445649960823e+07 9.999971288460501873e-01 0.000000000000000000e+00
1.272703861154604144e+07 9.999970793076130571e-01 0.000000000000000000e+00
1.309961977034736983e+07 9.999970281844666742e-01 0.000000000000000000e+00
1.348310815777668729e+07 9.999969754351037965e-01 0.000000000000000000e+00
1.387782308046972565e+07 9.999969210166431699e-01 0.000000000000000000e+00
1.428409319269130938e+07 9.999968648847893382e-01 0.000000000000000000e+00
1.470225676998497546e+07 9.999968069937954507e-01 0.000000000000000000e+00
1.513266199083390087e+07 9.999967472964232940e-01 0.000000000000000000e+00
1.557566722656711750e+07 9.999966857439028800e-01 0.000000000000000000e+00
1.603164133975265734e+07 9.999966222858907017e-01 0.000000000000000000e+00
1.650096399132637493e+07 9.999965568704272112e-01 0.000000000000000000e+00
1.698402595671162382e+07 9.999964894438932994e-01 0.000000000000000000e+00
1.748122945119322836e+07 9.999964199509659979e-01 0.000000000000000000e+00
1.799298846481704339e+07 9.999963483345712945e-01 0.000000000000000000e+00
1.851972910709329695e+07 9.999962745358377258e-01 0.000000000000000000e+00
1.906188996179104224e+07 9.999961984940470838e-01 0.000000000000000000e+00
1.961992245211946219e+07 9.999961201465846772e-01 0.000000000000000000e+00
2.019429121659941226e+07 9.999960394288860410e-01 0.000000000000000000e+00
2.078547449593874440e+07 9.999959562743852004e-01 0.000000000000000000e+00
2.139396453123306111e+07 9.999958706144580489e-01 0.000000000000000000e+00
2.202026797382412851e+07 9.999957823783647282e-01 0.000000000000000000e+00
2.266490630715640634e+07 9.999956914931904528e-01 0.000000000000000000e+00
2.332841628098354116e+07 9.999955978837812287e-01 0.000000000000000000e+00
2.401135035828592256e+07 9.999955014726792379e-01 0.000000000000000000e+00
2.471427717527209967e+07 9.999954021800512294e-01 0.000000000000000000e+00
2.543778201484620571e+07 9.999952999236143558e-01 0.000000000000000000e+00
2.618246729393604398e+07 9.999951946185532403e-01 0.000000000000000000e+00
2.694895306508802250e+07 9.999950861774309363e-01 0.000000000000000000e+00
2.773787753274573386e+07 9.999949745100895626e-01 0.000000000000000000e+00
2.854989758464243636e+07 9.999948595235387261e-01 0.000000000000000000e+00
2.938568933875045553e+07 9.999947411218297333e-01 0.000000000000000000e+00
3.024594870624187589e+07 9.999946192059117056e-01 0.000000000000000000e+00
3.113139197092977539e+07 9.999944936734677103e-01 0.000000000000000000e+00
3.204275638567303866e+07 9.999943644187281322e-01 0.000000000000000000e+00
3.298080078624019027e+07 9.999942313322576215e-01 0.000000000000000000e+00
3.394630622314398736e+07 9.999940943007139538e-01 0.000000000000000000e+00
3.494007661197337508e+07 9.999939532065801329e-01 0.000000000000000000e+00
3.596293940276323259e+07 9.999938079278684055e-01 0.000000000000000000e+00
3.701574626895964146e+07 9.999936583378008503e-01 0.000000000000000000e+00
3.809937381655522436e+07 9.999935043044713145e-01 0.000000000000000000e+00
3.921472431398352981e+07 9.999933456905010232e-01 0.000000000000000000e+00
4.036272644338091463e+07 9.999931823526984065e-01 0.000000000000000000e+00
4.154433607384214550e+07 9.999930141417416873e-01 0.000000000000000000e+00
4.276053705731222034e+07 9.999928409019094300e-01 0.000000000000000000e+00
4.401234204777763784e+07 9.999926624708819212e-01 0.000000000000000000e+00
4.530079334444013983e+07 9.999924786796485776e-01 0.000000000000000000e+00
4.662696375957339257e+07 9.999922893525553524e-01 0.000000000000000000e+00
4.799195751178593934e+07 9.999920943075304436e-01 0.000000000000000000e+00
4.939691114543503523e+07 9.999918933565302703e-01 0.000000000000000000e+00
5.084299447695536911e+07 9.999916863062461303e-01 0.000000000000000000e+00
5.233141156889118254e+07 9.999914729591108387e-01 0.000000000000000000e+00
5.386340173244398832e+07 9.999912531146473160e-01 0.000000000000000000e+00
5.544024055936867744e+07 9.999910265711846602e-01 0.000000000000000000e+00
5.706324098407810181e+07 9.999907931279782280e-01 0.000000000000000000e+00
5.873375437684158981e+07 9.999905525877440526e-01 0.000000000000000000e+00
6.045317166898543388e+07 9.999903047596269134e-01 0.000000000000000000e+00
6.222292451103405654e+07 9.999900494625980629e-01 0.000000000000000000e+00
6.404448646475479007e+07 9.999897865292799448e-01 0.000000000000000000e+00
6.591937423010069132e+07 9.999895158101780313e-01 0.000000000000000000e+00
6.784914890807065368e+07 9.999892371782996836e-01 0.000000000000000000e+00
6.983541730054014921e+07 9.999889505341327256e-01 0.000000000000000000e+00
7.187983324814344943e+07 9.999886558109495338e-01 0.000000000000000000e+00
7.398409900732341409e+07 9.999883529804081128e-01 0.000000000000000000e+00
7.614996666769285500e+07 9.999880420584228435e-01 0.000000000000000000e+00
7.837923961088877916e+07 9.999877231112834775e-01 0.000000000000000000e+00
8.067377401213566959e+07 9.999873962620162704e-01 0.000000000000000000e+00
8.303548038576523960e+07 9.999870616969861459e-01 0.000000000000000000e+00
8.546632517598097026e+07 9.999867196727667551e-01 0.000000000000000000e+00
8.796833239419335127e+07 9.999863705233165145e-01 0.000000000000000000e+00
9.054358530428627133e+07 9.999860146675236816e-01 0.000000000000000000e+00
9.319422815721915662e+07 9.999856526172107296e-01 0.000000000000000000e+00
9.592246797641080618e+07 9.999852849857023829e-01 0.000000000000000000e+00
9.873057639538833499e+07 9.999849124971025294e-01 0.000000000000000000e+00
1.016208915492325127e+08 9.999845359964378844e-01 0.000000000000000000e+00
1.045958200213979483e+08 9.999841564608630273e-01 0.000000000000000000e+00
1.076578388475208879e+08 9.999837750121447488e-01 0.000000000000000000e+00
1.108094975778920650e+08 9.999833929306740643e-01 0.000000000000000000e+00
1.140534204003080726e+08 9.999830116712855599e-01 0.000000000000000000e+00
1.173923083250646591e+08 9.999826328811953768e-01 0.000000000000000000e+00
1.208289414339191765e+08 9.999822584204045572e-01 0.000000000000000000e+00
1.243661811948912442e+08 9.999818903849503338e-01 0.000000000000000000e+00
1.280069728448240012e+08 9.999815311334346868e-01 0.000000000000000000e+00
1.317543478416987956e+08 9.999811833172961295e-01 0.000000000000000000e+00
1.356114263887411058e+08 9.999808499153504115e-01 0.000000000000000000e+00
1.395814200324140787e+08 9.999805342731706848e-01 0.000000000000000000e+00
1.436676343364725709e+08 9.999802401479456204e-01 0.000000000000000000e+00
1.478734716342998445e+08 9.999799717595171389e-01 0.000000000000000000e+00
1.522024338618128896e+08 9.999797338483680242e-01 0.000000000000000000e+00
1.566581254733055234e+08 9.999795317414205131e-01 0.000000000000000000e+00
1.612442564426526427e+08 9.999793714265863276e-01 0.000000000000000000e+00
1.659646453523680866e+08 9.999792567803261756e-01 0.000000000000000000e+00
1.708232225730995834e+08 9.999792011630431743e-01 0.000000000000000000e+00
1.758240335362032056e+08 9.999792099030847536e-01 0.000000000000000000e+00
1.809712421021151841e+08 9.999792930416308012e-01 0.000000000000000000e+00
1.862691340273382664e+08 9.999794611316323856e-01 0.000000000000000000e+00
1.917221205329236984e+08 9.999797265685572700e-01 0.000000000000000000e+00
1.973347419774128497e+08 9.999801026310436436e-01 0.000000000000000000e+00
2.031116716373098791e+08 9.999806051711103150e-01 0.000000000000000000e+00
2.090577195982275307e+08 9.999812514147524700e-01 0.000000000000000000e+00
2.151778367599376738e+08 9.999820605885003655e-01 0.000000000000000000e+00
2.214771189586761594e+08 9.999830550668636908e-01 0.000000000000000000e+00
2.279608112101274729e+08 9.999842596608680134e-01 0.000000000000000000e+00
2.346343120766140223e+08 9.999857018852081891e-01 0.000000000000000000e+00
2.415031781621412933e+08 9.999874136967528138e-01 0.000000000000000000e+00
2.485731287390354574e+08 9.999894292436416476e-01 0.000000000000000000e+00
2.558500505100153685e+08 9.999917902295657468e-01 2.520046948326378289e-28
2.633400025096821785e+08 9.999945390225308817e-01 1.445021252903205261e-27
2.710492211494992375e+08 9.999977277903177031e-01 7.899356170957901584e-27
2.789841254104528427e+08 1.000001412167294879e+00 4.123823137937782092e-26
2.871513221877367496e+08 1.000005655634644830e+00 2.057053818319888944e-25
2.955576117919012904e+08 1.000010530172737111e+00 9.820950160664158172e-25
3.042099936110370755e+08 1.000016116033696001e+00 4.494081622277007372e-24
3.131156719387277365e+08 1.000022503009212693e+00 1.972931753582576660e-23
3.222820619726160765e+08 1.000029793237090070e+00 8.319152662739685810e-23
3.317167959885642529e+08 1.000038101265480872e+00 3.373182252334332481e-22
3.414277296955730319e+08 1.000047553965525582e+00 1.316777025692714824e-21
3.514229487767407298e+08 1.000058297686843956e+00 4.953485731497063018e-21
3.617107756216938496e+08 1.000070495834374906e+00 1.797525135305293649e-20
3.722997762561208606e+08 1.000084325989220924e+00 6.299123456069873411e-20
3.831987674741675258e+08 1.000100002477722905e+00 2.133804471474877085e-19
3.944168241796168089e+08 1.000117752563047357e+00 6.993679412271310475e-19
4.059632869419945478e+08 1.000137839715395938e+00 2.219907721278191220e-18
4.178477697738785744e+08 1.000160564250232254e+00 6.830187926419229166e-18
4.300801681358719468e+08 1.000186258305957754e+00 2.038818927493558210e-17
4.426706671759345531e+08 1.000215309599737257e+00 5.909365405126807277e-17
4.556297502099201679e+08 1.000248149535488684e+00 1.664508308480027651e-16
4.689682074503630400e+08 1.000285274546836689e+00 4.559970443186077398e-16
4.826971449908131361e+08 1.000327260524799033e+00 1.215956921563994155e-15
4.968279940531876683e+08 1.000374751546274199e+00 3.158568334086184189e-15
5.113725205058177710e+08 1.000428507815501744e+00 7.998493329918339213e-15
5.263428346601520181e+08 1.000489400231928228e+00 1.976050691806027255e-14
5.417514013542568684e+08 1.000558441350736238e+00 4.766241056473824930e-14
5.576110503314876556e+08 1.000636813174672790e+00 1.123190728560578043e-13
5.739349869230254889e+08 1.000725896121672953e+00 2.587818575843498607e-13
5.907368030431095362e+08 1.000827324556196274e+00 5.833341025659622667e-13
6.080304885061746836e+08 1.000943000959123141e+00 1.287347354593874605e-12
6.258304426752967834e+08 1.001075191855232083e+00 2.783287866205599433e-12
6.441514864516215324e+08 1.001226606094490101e+00 5.899071168276281472e-12
6.630088746148020029e+08 1.001400398353913479e+00 1.226428241483116753e-11
6.824183085247018337e+08 1.001600354187163422e+00 2.502624133541134812e-11
7.023959491949106455e+08 1.001830997645420052e+00 5.015311145771181836e-11
7.229584307490235567e+08 1.002097673818284962e+00 9.876382974699202787e-11
7.441228742708098888e+08 1.002406795511309623e+00 1.912206193035570240e-10
7.659069020598695278e+08 1.002766027285472816e+00 3.642028392180717806e-10
7.883286523046215773e+08 1.003184387599815208e+00 6.826973713223867610e-10
8.114067941848138571e+08 1.003672650996673577e+00 1.260063606803777259e-09
8.351605434161820412e+08 1.004243656200972890e+00 2.291044480882044278e-09
8.596096782501769066e+08 1.004912739458446946e+00 4.105348208767300071e-09
8.847745559420487881e+08 1.005697815329690936e+00 7.252557878764880061e-09
9.106761297010622025e+08 1.006620149909769113e+00 1.263624033627376109e-08
9.373359661369252205e+08 1.007705204512253871e+00 2.172182141537861458e-08
9.647762632169255018e+08 1.008982443825565012e+00 3.685089921159868472e-08
9.930198687487908602e+08 1.010486771702841180e+00 6.171652593050127470e-08
1.022090299404632449e+09 1.012259463758484079e+00 1.020678684201405928e-07
1.052011760301773071e+09 1.014348196494051058e+00 1.667275335335714206e-07
1.082809165156836033e+09 1.016809393061674172e+00 2.690757563236581532e-07
1.114508157029842138e+09 1.019708416193523037e+00 4.291249992558171279e-07
1.147135129675544500e+09 1.023121570213460396e+00 6.764527677806006603e-07
1.180717249519859791e+09 1.027137429075120290e+00 1.054218249542610815e-06
1.215282478279654264e+09 1.031858781279652471e+00 1.624647719463135451e-06
1.250859596244677782e+09 1.037404608947885221e+00 2.476413525380125470e-06
1.287478226241111994e+09 1.043911996387534957e+00 3.734394968113605904e-06
1.325168858296648741e+09 1.051539909270289064e+00 5.572650342133784292e-06
1.363962875027585745e+09 1.060469770701789827e+00 8.230935676285054190e-06
1.403892577769169807e+09 1.070912832628069689e+00 1.203683663508365690e-05
1.444991213470902681e+09 1.083106901770232833e+00 1.743276638617288876e-05
1.487293002379149437e+09 1.097328713661555710e+00 2.501222753499274647e-05
1.530833166530198097e+09 1.113893061861061407e+00 3.556422572358182796e-05
1.575647959077452183e+09 1.133158105470293497e+00 5.013000029181732050e-05
1.621774694477110863e+09 1.155537553077994550e+00 7.007784243503342139e-05
1.669251779557586193e+09 1.181492125550586580e+00 9.718873305662370900e-05
1.718118745498470783e+09 1.211560109565993582e+00 1.337842680759791043e-04
1.768416280745623112e+09 1.246340395391338340e+00 1.828629115237650495e-04
1.820186264889892578e+09 1.286522892816081232e+00 2.483030121534866700e-04
1.873471803537642002e+09 1.332885990018524591e+00 3.351015587111851480e-04
1.928317264202027798e+09 1.386308234961443064e+00 4.496874160470032650e-04
1.984768313245055676e+09 1.447798930819385932e+00 6.003439023780955675e-04
2.042871953901109934e+09 1.518476727782721802e+00 7.976970471513754584e-04
