# T[K] L_nTOpCCRTh
# fingerprint_hash: 808827bedd5a085d
# fingerprint: {"QED_corrections":true,"T_start_cosmo_MeV":40.0,"analytic_distortions":false,"delta_xi_nu":0.0,"external_scale_factor":false,"format_version":2,"incomplete_decoupling":true,"munuOverTnu":0.0,"n_temperature_table":2000,"nevo_file":null,"nevo_file_prefix":"NEVOPRIMAT","nevo_grid_file":null,"nevo_spectral_file":null,"sampling_nTOp_thermal":150,"spectral_distortions":true,"y_SZ":0.0}
1.160451812155007152e+06 -1.361054583607541890e-02
1.253672669040457346e+06 -1.361066416655523463e-02
1.354382098969128216e+06 -1.361007452679669459e-02
1.463181670389291598e+06 -1.360296810613239801e-02
1.580721276656508446e+06 -1.359474361940275246e-02
1.707703018046817277e+06 -1.360336638401579527e-02
1.844885395617988426e+06 -1.359636476619921659e-02
1.993087841969969217e+06 -1.359360750804739469e-02
2.153195615968253464e+06 -1.359105170424833309e-02
2.326165090667775832e+06 -1.357977154861444817e-02
2.513029466023765039e+06 -1.358313359240743805e-02
2.714904940513381269e+06 -1.357821090688677255e-02
2.932997378533025272e+06 -1.356629669255329969e-02
3.168609513397883624e+06 -1.355771514915588873e-02
3.423148728969279211e+06 -1.354014239514809287e-02
3.698135466392064467e+06 -1.352376853970529633e-02
3.995212306157895830e+06 -1.350216645219727042e-02
4.316153779744552448e+06 -1.347356417970413042e-02
4.662876969439075328e+06 -1.343498154550048368e-02
5.037452959660786204e+06 -1.339451585982891386e-02
5.442119208186591044e+06 -1.335560648902260963e-02
5.879292911175437272e+06 -1.328891547668706839e-02
6.351585441825673915e+06 -1.322176786200965001e-02
6.861817948911500163e+06 -1.312837848246359990e-02
7.413038208373740315e+06 -1.300821233549741794e-02
8.008538828624290414e+06 -1.287926275123468800e-02
8.651876918310545385e+06 -1.271748024548844183e-02
9.346895334021069109e+06 -1.251515265160730098e-02
1.009774563485171832e+07 -1.227832526519294885e-02
1.090891288094713911e+07 -1.198598771042472776e-02
1.178524242414645478e+07 -1.164396146007061830e-02
1.273196885076255910e+07 -1.125326599722344459e-02
1.375474724937859736e+07 -1.078019717378498644e-02
1.485968699043405987e+07 -1.023377190912482838e-02
1.605338821937643550e+07 -9.609438483143774648e-03
1.734298128136319667e+07 -8.888134037442069202e-03
1.873616931300986558e+07 -8.077912549287953256e-03
2.024127425559782237e+07 -7.187179106052616478e-03
2.186728656459341571e+07 -6.214587790352267722e-03
2.362391891240761057e+07 -5.188143085198541893e-03
2.552166420518058166e+07 -4.125476708790324493e-03
2.757185826014227793e+07 -3.082377955010175401e-03
2.978674751794058830e+07 -2.099725850847438714e-03
3.217956219440392405e+07 -1.243958649777080535e-03
3.476459530869602412e+07 -5.835213335660194636e-04
3.755728805992225558e+07 -1.692171199346017088e-04
4.057432206216824800e+07 -9.964334227196000251e-06
4.383371898892010003e+07 -5.755461261887020708e-08
4.735494822207101434e+07 -5.994459686792420958e-08
5.115904314853739738e+07 -6.131196313880099760e-08
5.526872679915801436e+07 -6.273911711506070847e-08
5.970854758035659045e+07 -6.350971235653965126e-08
6.450502590933625400e+07 -6.316476001262984332e-08
6.968681262870006263e+07 -6.303151878456665308e-08
7.528486014676062763e+07 -5.929767396850968536e-08
8.133260732580941916e+07 -5.431331594048542647e-08
8.786617922274161875e+07 -4.718431815675977508e-08
9.492460287514951825e+07 -3.691439865191927514e-08
1.025500404218405932e+08 -2.121313655867086034e-08
1.107880409502801001e+08 -1.486021654820751030e-09
1.196878125753223747e+08 2.522853022046926544e-08
1.293025163744374216e+08 6.088645136070454845e-08
1.396895839352056682e+08 1.078728272570147542e-07
1.509110604118803144e+08 1.670985008865618498e-07
1.630339751402070820e+08 2.512933983727433734e-07
1.761307420242955089e+08 3.589926611907621215e-07
1.902795920871724188e+08 4.954619336140775406e-07
2.055650407687853873e+08 6.803177704834846630e-07
2.220783927627585828e+08 9.057153757767718203e-07
2.399182874074511528e+08 1.207761376406382240e-06
2.591912878891160190e+08 1.610608698657728372e-06
2.800125177766344547e+08 2.120300231724530746e-06
3.025063486900575757e+08 2.773777318686030313e-06
3.268071432106052041e+08 3.676008361201679163e-06
3.530600574697548747e+08 4.824366284242904499e-06
3.814219082115249038e+08 6.317284900663331326e-06
4.120621095072012544e+08 8.299770302887249842e-06
4.451636847177680731e+08 1.086083998260840834e-05
4.809243597488255501e+08 1.425971488927989795e-05
5.195577441283257604e+08 1.868203242570507384e-05
5.612946069620963335e+08 2.462209607620728831e-05
6.063842553887897730e+08 3.257726628028610684e-05
6.550960237682232857e+08 4.293223398451876023e-05
7.077208824984805584e+08 5.694303424397934282e-05
7.645731760717209578e+08 7.574527227777145622e-05
8.259925007506810427e+08 1.011848159674571748e-04
8.923457330817526579e+08 1.355853363695231609e-04
9.640292213616168499e+08 1.822053034821251804e-04
1.041471153147698760e+09 2.447052506661726154e-04
1.125134112954372883e+09 3.278672623668019192e-04
1.215517845412750244e+09 4.381622871370973262e-04
1.313162240399310112e+09 5.820802676715014024e-04
1.418650557964442730e+09 7.674056716389101532e-04
1.532612912324409485e+09 1.002134976586911176e-03
1.655730035727636814e+09 1.293712515243421526e-03
1.788737344678170204e+09 1.651896936156891727e-03
1.932429332804980516e+09 2.079873969914517069e-03
2.087664316617127419e+09 2.577790859923934086e-03
2.255369562492714405e+09 3.144897859490825096e-03
2.436546825526579857e+09 3.770848823935868139e-03
2.632278333322072506e+09 4.432494924491773430e-03
2.843733250469903946e+09 5.102196097676836919e-03
3.072174662328422070e+09 5.708886168149728338e-03
3.318967119821494579e+09 6.195884522547942877e-03
3.585584790321600437e+09 6.410405254789541124e-03
3.873620263305624008e+09 6.273147044753350082e-03
4.184794063382347107e+09 5.470428546537392869e-03
4.520964927516030312e+09 3.894507563175966976e-03
4.884140907834819794e+09 1.202263552144441569e-03
5.276491366344703674e+09 -2.942088596062869890e-03
5.700359933197033882e+09 -8.743065683943281735e-03
6.158278505913402557e+09 -1.611180801513528021e-02
6.652982373189378738e+09 -2.506954893585552208e-02
7.187426553616637230e+09 -3.441343962512271454e-02
7.764803446919225693e+09 -4.227123794914693089e-02
8.388561903140430450e+09 -4.217974608120135527e-02
9.062427823686676025e+09 -2.861631675900686012e-02
9.790426417284263611e+09 2.021153491040456052e-02
1.057690624379107666e+10 1.246398452656304334e-01
1.142656518948417664e+10 3.326395465103249571e-01
1.234447852898171425e+10 7.148595263052571758e-01
1.333612924142169571e+10 1.402262668958250025e+00
1.440744076198518562e+10 2.580664962284426878e+00
1.556481236439972305e+10 4.559732309525730720e+00
1.681515738577212143e+10 7.825333639973495181e+00
1.816594452208106232e+10 1.314760005198869308e+01
1.962524244099864960e+10 2.177581884193107697e+01
2.120176797852801132e+10 3.557408524546470829e+01
2.290493820734995270e+10 5.744388577493836578e+01
2.474492668789897537e+10 9.207889686804983853e+01
2.673272423817380524e+10 1.465089807037896321e+02
2.888020458527858353e+10 2.314338616829439275e+02
3.120019529085327530e+10 3.638860310140861998e+02
3.370655437404993439e+10 5.696753532093824788e+02
3.641425308975088501e+10 8.879378755011633757e+02
3.933946535648548889e+10 1.378191023146940552e+03
4.249966436822799683e+10 2.133493611395556854e+03
4.591372696716772461e+10 3.296904769756023143e+03
4.960204640090243530e+10 5.081567092382333612e+03
5.358665413758853149e+10 7.814687947897267804e+03
5.789135146668624115e+10 1.199042735943584194e+04
6.254185167139502716e+10 1.836783815757222692e+04
6.756593362201323700e+10 2.811565402902195274e+04
7.299360770768927002e+10 4.290315350978993229e+04
7.885729509771961975e+10 6.551082926211106678e+04
8.519202140318063354e+10 9.982213189655847964e+04
9.203562589569299316e+10 1.519103945763205993e+05
9.942898753304737854e+10 2.309889457365988055e+05
1.074162691418125763e+11 3.507985245375041268e+05
1.160451812155009613e+11 5.324684021654846147e+05
