# F17 + n > N14 + a   [F17_n__N14_a]   ref=NACRE, Angulo et al. 1999
# forward[T9] = (1.38*^8*T9^0.053*Exp[-(55.0-54.943)/T9]* (1.+.039*Exp[-.012/T9+.217*T9])/1.478 )   uncertainty factor f = 1.05
# T9                 rate                error
1.000000e-03   1.138726e-17   1.050000e+00
1.018629e-03   3.232712e-17   1.050000e+00
1.037605e-03   9.003996e-17   1.050000e+00
1.056935e-03   2.461362e-16   1.050000e+00
1.076624e-03   6.605962e-16   1.050000e+00
1.096681e-03   1.741258e-15   1.050000e+00
1.117111e-03   4.509207e-15   1.050000e+00
1.137921e-03   1.147592e-14   1.050000e+00
1.159120e-03   2.871198e-14   1.050000e+00
1.180713e-03   7.064198e-14   1.050000e+00
1.202708e-03   1.709699e-13   1.050000e+00
1.225114e-03   4.071592e-13   1.050000e+00
1.247936e-03   9.543874e-13   1.050000e+00
1.271184e-03   2.202556e-12   1.050000e+00
1.294865e-03   5.006046e-12   1.050000e+00
1.318987e-03   1.120855e-11   1.050000e+00
1.343558e-03   2.472919e-11   1.050000e+00
1.368587e-03   5.377660e-11   1.050000e+00
1.394083e-03   1.152960e-10   1.050000e+00
1.420053e-03   2.437731e-10   1.050000e+00
1.446507e-03   5.084149e-10   1.050000e+00
1.473454e-03   1.046214e-09   1.050000e+00
1.500903e-03   2.124705e-09   1.050000e+00
1.528864e-03   4.259495e-09   1.050000e+00
1.557345e-03   8.431429e-09   1.050000e+00
1.586357e-03   1.648272e-08   1.050000e+00
1.615909e-03   3.183028e-08   1.050000e+00
1.646012e-03   6.073414e-08   1.050000e+00
1.676675e-03   1.145254e-07   1.050000e+00
1.707910e-03   2.134719e-07   1.050000e+00
1.739726e-03   3.934068e-07   1.050000e+00
1.772136e-03   7.169610e-07   1.050000e+00
1.805149e-03   1.292380e-06   1.050000e+00
1.838777e-03   2.304694e-06   1.050000e+00
1.873032e-03   4.066774e-06   1.050000e+00
1.907924e-03   7.102060e-06   1.050000e+00
1.943467e-03   1.227718e-05   1.050000e+00
1.979672e-03   2.101230e-05   1.050000e+00
2.016551e-03   3.561139e-05   1.050000e+00
2.054117e-03   5.977540e-05   1.050000e+00
2.092383e-03   9.939182e-05   1.050000e+00
2.131362e-03   1.637377e-04   1.050000e+00
2.171068e-03   2.672946e-04   1.050000e+00
2.211512e-03   4.324617e-04   1.050000e+00
2.252711e-03   6.935729e-04   1.050000e+00
2.294676e-03   1.102792e-03   1.050000e+00
2.337424e-03   1.738682e-03   1.050000e+00
2.380968e-03   2.718563e-03   1.050000e+00
2.425323e-03   4.216161e-03   1.050000e+00
2.470504e-03   6.486620e-03   1.050000e+00
2.516527e-03   9.901631e-03   1.050000e+00
2.563407e-03   1.499839e-02   1.050000e+00
2.611161e-03   2.254723e-02   1.050000e+00
2.659804e-03   3.364442e-02   1.050000e+00
2.709354e-03   4.983827e-02   1.050000e+00
2.759826e-03   7.329952e-02   1.050000e+00
2.811239e-03   1.070495e-01   1.050000e+00
2.863610e-03   1.552633e-01   1.050000e+00
2.916956e-03   2.236708e-01   1.050000e+00
2.971296e-03   3.200809e-01   1.050000e+00
3.026648e-03   4.550644e-01   1.050000e+00
3.083031e-03   6.428370e-01   1.050000e+00
3.140465e-03   9.023908e-01   1.050000e+00
3.198969e-03   1.258938e+00   1.050000e+00
3.258562e-03   1.745737e+00   1.050000e+00
3.319266e-03   2.406394e+00   1.050000e+00
3.381101e-03   3.297731e+00   1.050000e+00
3.444087e-03   4.493355e+00   1.050000e+00
3.508247e-03   6.088062e+00   1.050000e+00
3.573602e-03   8.203232e+00   1.050000e+00
3.640175e-03   1.099341e+01   1.050000e+00
3.707988e-03   1.465429e+01   1.050000e+00
3.777064e-03   1.943229e+01   1.050000e+00
3.847427e-03   2.563612e+01   1.050000e+00
3.919100e-03   3.365038e+01   1.050000e+00
3.992109e-03   4.395189e+01   1.050000e+00
4.066478e-03   5.712867e+01   1.050000e+00
4.142232e-03   7.390240e+01   1.050000e+00
4.219398e-03   9.515434e+01   1.050000e+00
4.298001e-03   1.219556e+02   1.050000e+00
4.378069e-03   1.556016e+02   1.050000e+00
4.459628e-03   1.976524e+02   1.050000e+00
4.542706e-03   2.499774e+02   1.050000e+00
4.627332e-03   3.148071e+02   1.050000e+00
4.713535e-03   3.947912e+02   1.050000e+00
4.801343e-03   4.930635e+02   1.050000e+00
4.890787e-03   6.133150e+02   1.050000e+00
4.981898e-03   7.598740e+02   1.050000e+00
5.074705e-03   9.377962e+02   1.050000e+00
5.169242e-03   1.152963e+03   1.050000e+00
5.265540e-03   1.412187e+03   1.050000e+00
5.363631e-03   1.723332e+03   1.050000e+00
5.463550e-03   2.095440e+03   1.050000e+00
5.565331e-03   2.538864e+03   1.050000e+00
5.669007e-03   3.065420e+03   1.050000e+00
5.774615e-03   3.688539e+03   1.050000e+00
5.882190e-03   4.423437e+03   1.050000e+00
5.991770e-03   5.287291e+03   1.050000e+00
6.103390e-03   6.299419e+03   1.050000e+00
6.217090e-03   7.481479e+03   1.050000e+00
6.332908e-03   8.857669e+03   1.050000e+00
6.450884e-03   1.045493e+04   1.050000e+00
6.571058e-03   1.230316e+04   1.050000e+00
6.693470e-03   1.443545e+04   1.050000e+00
6.818162e-03   1.688828e+04   1.050000e+00
6.945178e-03   1.970174e+04   1.050000e+00
7.074559e-03   2.291980e+04   1.050000e+00
7.206351e-03   2.659048e+04   1.050000e+00
7.340598e-03   3.076609e+04   1.050000e+00
7.477346e-03   3.550347e+04   1.050000e+00
7.616642e-03   4.086414e+04   1.050000e+00
7.758532e-03   4.691457e+04   1.050000e+00
7.903066e-03   5.372632e+04   1.050000e+00
8.050292e-03   6.137624e+04   1.050000e+00
8.200261e-03   6.994663e+04   1.050000e+00
8.353023e-03   7.952537e+04   1.050000e+00
8.508632e-03   9.020607e+04   1.050000e+00
8.667139e-03   1.020882e+05   1.050000e+00
8.828599e-03   1.152770e+05   1.050000e+00
8.993067e-03   1.298839e+05   1.050000e+00
9.160598e-03   1.460263e+05   1.050000e+00
9.331251e-03   1.638274e+05   1.050000e+00
9.505083e-03   1.834167e+05   1.050000e+00
9.682153e-03   2.049295e+05   1.050000e+00
9.862522e-03   2.285069e+05   1.050000e+00
1.004625e-02   2.542960e+05   1.050000e+00
1.023340e-02   2.824494e+05   1.050000e+00
1.042404e-02   3.131252e+05   1.050000e+00
1.061823e-02   3.464867e+05   1.050000e+00
1.081604e-02   3.827023e+05   1.050000e+00
1.101753e-02   4.219453e+05   1.050000e+00
1.122277e-02   4.643932e+05   1.050000e+00
1.143184e-02   5.102278e+05   1.050000e+00
1.164481e-02   5.596349e+05   1.050000e+00
1.186174e-02   6.128036e+05   1.050000e+00
1.208271e-02   6.699259e+05   1.050000e+00
1.230780e-02   7.311967e+05   1.050000e+00
1.253708e-02   7.968129e+05   1.050000e+00
1.277063e-02   8.669732e+05   1.050000e+00
1.300854e-02   9.418776e+05   1.050000e+00
1.325087e-02   1.021727e+06   1.050000e+00
1.349772e-02   1.106722e+06   1.050000e+00
1.374917e-02   1.197063e+06   1.050000e+00
1.400531e-02   1.292950e+06   1.050000e+00
1.426621e-02   1.394582e+06   1.050000e+00
1.453198e-02   1.502156e+06   1.050000e+00
1.480269e-02   1.615866e+06   1.050000e+00
1.507845e-02   1.735902e+06   1.050000e+00
1.535935e-02   1.862454e+06   1.050000e+00
1.564548e-02   1.995704e+06   1.050000e+00
1.593694e-02   2.135833e+06   1.050000e+00
1.623382e-02   2.283016e+06   1.050000e+00
1.653624e-02   2.437420e+06   1.050000e+00
1.684430e-02   2.599209e+06   1.050000e+00
1.715809e-02   2.768540e+06   1.050000e+00
1.747773e-02   2.945562e+06   1.050000e+00
1.780332e-02   3.130420e+06   1.050000e+00
1.813498e-02   3.323246e+06   1.050000e+00
1.847281e-02   3.524169e+06   1.050000e+00
1.881694e-02   3.733308e+06   1.050000e+00
1.916748e-02   3.950772e+06   1.050000e+00
1.952456e-02   4.176662e+06   1.050000e+00
1.988828e-02   4.411072e+06   1.050000e+00
2.025878e-02   4.654082e+06   1.050000e+00
2.063618e-02   4.905767e+06   1.050000e+00
2.102061e-02   5.166190e+06   1.050000e+00
2.141220e-02   5.435404e+06   1.050000e+00
2.181109e-02   5.713453e+06   1.050000e+00
2.221741e-02   6.000369e+06   1.050000e+00
2.263130e-02   6.296176e+06   1.050000e+00
2.305289e-02   6.600887e+06   1.050000e+00
2.348235e-02   6.914504e+06   1.050000e+00
2.391980e-02   7.237021e+06   1.050000e+00
2.436540e-02   7.568419e+06   1.050000e+00
2.481930e-02   7.908671e+06   1.050000e+00
2.528166e-02   8.257740e+06   1.050000e+00
2.575263e-02   8.615579e+06   1.050000e+00
2.623238e-02   8.982130e+06   1.050000e+00
2.672106e-02   9.357328e+06   1.050000e+00
2.721885e-02   9.741097e+06   1.050000e+00
2.772591e-02   1.013335e+07   1.050000e+00
2.824241e-02   1.053400e+07   1.050000e+00
2.876854e-02   1.094294e+07   1.050000e+00
2.930447e-02   1.136007e+07   1.050000e+00
2.985038e-02   1.178525e+07   1.050000e+00
3.040646e-02   1.221837e+07   1.050000e+00
3.097291e-02   1.265930e+07   1.050000e+00
3.154990e-02   1.310789e+07   1.050000e+00
3.213764e-02   1.356400e+07   1.050000e+00
3.273634e-02   1.402748e+07   1.050000e+00
3.334618e-02   1.449816e+07   1.050000e+00
3.396739e-02   1.497587e+07   1.050000e+00
3.460016e-02   1.546046e+07   1.050000e+00
3.524473e-02   1.595174e+07   1.050000e+00
3.590130e-02   1.644953e+07   1.050000e+00
3.657011e-02   1.695364e+07   1.050000e+00
3.725137e-02   1.746390e+07   1.050000e+00
3.794533e-02   1.798010e+07   1.050000e+00
3.865221e-02   1.850206e+07   1.050000e+00
3.937226e-02   1.902956e+07   1.050000e+00
4.010573e-02   1.956242e+07   1.050000e+00
4.085286e-02   2.010042e+07   1.050000e+00
4.161391e-02   2.064337e+07   1.050000e+00
4.238913e-02   2.119104e+07   1.050000e+00
4.317880e-02   2.174325e+07   1.050000e+00
4.398317e-02   2.229977e+07   1.050000e+00
4.480254e-02   2.286040e+07   1.050000e+00
4.563716e-02   2.342492e+07   1.050000e+00
4.648734e-02   2.399313e+07   1.050000e+00
4.735335e-02   2.456482e+07   1.050000e+00
4.823549e-02   2.513977e+07   1.050000e+00
4.913407e-02   2.571778e+07   1.050000e+00
5.004939e-02   2.629863e+07   1.050000e+00
5.098176e-02   2.688212e+07   1.050000e+00
5.193150e-02   2.746805e+07   1.050000e+00
5.289893e-02   2.805621e+07   1.050000e+00
5.388438e-02   2.864639e+07   1.050000e+00
5.488820e-02   2.923841e+07   1.050000e+00
5.591071e-02   2.983205e+07   1.050000e+00
5.695227e-02   3.042713e+07   1.050000e+00
5.801323e-02   3.102345e+07   1.050000e+00
5.909396e-02   3.162082e+07   1.050000e+00
6.019482e-02   3.221905e+07   1.050000e+00
6.131619e-02   3.281796e+07   1.050000e+00
6.245845e-02   3.341737e+07   1.050000e+00
6.362198e-02   3.401710e+07   1.050000e+00
6.480720e-02   3.461697e+07   1.050000e+00
6.601449e-02   3.521682e+07   1.050000e+00
6.724427e-02   3.581647e+07   1.050000e+00
6.849697e-02   3.641577e+07   1.050000e+00
6.977300e-02   3.701454e+07   1.050000e+00
7.107280e-02   3.761264e+07   1.050000e+00
7.239681e-02   3.820992e+07   1.050000e+00
7.374549e-02   3.880621e+07   1.050000e+00
7.511929e-02   3.940138e+07   1.050000e+00
7.651869e-02   3.999529e+07   1.050000e+00
7.794416e-02   4.058780e+07   1.050000e+00
7.939618e-02   4.117878e+07   1.050000e+00
8.087525e-02   4.176810e+07   1.050000e+00
8.238187e-02   4.235562e+07   1.050000e+00
8.391656e-02   4.294124e+07   1.050000e+00
8.547985e-02   4.352483e+07   1.050000e+00
8.707225e-02   4.410629e+07   1.050000e+00
8.869432e-02   4.468549e+07   1.050000e+00
9.034660e-02   4.526235e+07   1.050000e+00
9.202967e-02   4.583674e+07   1.050000e+00
9.374409e-02   4.640859e+07   1.050000e+00
9.549045e-02   4.697779e+07   1.050000e+00
9.726934e-02   4.754426e+07   1.050000e+00
9.908137e-02   4.810790e+07   1.050000e+00
1.009272e-01   4.866865e+07   1.050000e+00
1.028073e-01   4.922641e+07   1.050000e+00
1.047225e-01   4.978111e+07   1.050000e+00
1.066734e-01   5.033269e+07   1.050000e+00
1.086606e-01   5.088107e+07   1.050000e+00
1.106848e-01   5.142620e+07   1.050000e+00
1.127468e-01   5.196800e+07   1.050000e+00
1.148472e-01   5.250643e+07   1.050000e+00
1.169866e-01   5.304143e+07   1.050000e+00
1.191660e-01   5.357295e+07   1.050000e+00
1.213859e-01   5.410093e+07   1.050000e+00
1.236472e-01   5.462535e+07   1.050000e+00
1.259506e-01   5.514614e+07   1.050000e+00
1.282970e-01   5.566329e+07   1.050000e+00
1.306870e-01   5.617674e+07   1.050000e+00
1.331216e-01   5.668648e+07   1.050000e+00
1.356015e-01   5.719246e+07   1.050000e+00
1.381276e-01   5.769467e+07   1.050000e+00
1.407008e-01   5.819307e+07   1.050000e+00
1.433219e-01   5.868765e+07   1.050000e+00
1.459919e-01   5.917838e+07   1.050000e+00
1.487115e-01   5.966525e+07   1.050000e+00
1.514819e-01   6.014824e+07   1.050000e+00
1.543038e-01   6.062735e+07   1.050000e+00
1.571784e-01   6.110256e+07   1.050000e+00
1.601064e-01   6.157386e+07   1.050000e+00
1.630891e-01   6.204125e+07   1.050000e+00
1.661273e-01   6.250473e+07   1.050000e+00
1.692220e-01   6.296429e+07   1.050000e+00
1.723745e-01   6.341993e+07   1.050000e+00
1.755856e-01   6.387165e+07   1.050000e+00
1.788566e-01   6.431946e+07   1.050000e+00
1.821885e-01   6.476337e+07   1.050000e+00
1.855825e-01   6.520337e+07   1.050000e+00
1.890397e-01   6.563949e+07   1.050000e+00
1.925614e-01   6.607172e+07   1.050000e+00
1.961486e-01   6.650009e+07   1.050000e+00
1.998026e-01   6.692460e+07   1.050000e+00
2.035248e-01   6.734527e+07   1.050000e+00
2.073162e-01   6.776211e+07   1.050000e+00
2.111783e-01   6.817514e+07   1.050000e+00
2.151123e-01   6.858439e+07   1.050000e+00
2.191197e-01   6.898986e+07   1.050000e+00
2.232016e-01   6.939158e+07   1.050000e+00
2.273597e-01   6.978958e+07   1.050000e+00
2.315951e-01   7.018387e+07   1.050000e+00
2.359095e-01   7.057447e+07   1.050000e+00
2.403043e-01   7.096142e+07   1.050000e+00
2.447809e-01   7.134473e+07   1.050000e+00
2.493409e-01   7.172444e+07   1.050000e+00
2.539859e-01   7.210057e+07   1.050000e+00
2.587174e-01   7.247314e+07   1.050000e+00
2.635371e-01   7.284219e+07   1.050000e+00
2.684465e-01   7.320775e+07   1.050000e+00
2.734474e-01   7.356984e+07   1.050000e+00
2.785414e-01   7.392849e+07   1.050000e+00
2.837304e-01   7.428375e+07   1.050000e+00
2.890160e-01   7.463563e+07   1.050000e+00
2.944000e-01   7.498416e+07   1.050000e+00
2.998844e-01   7.532940e+07   1.050000e+00
3.054710e-01   7.567135e+07   1.050000e+00
3.111616e-01   7.601006e+07   1.050000e+00
3.169582e-01   7.634557e+07   1.050000e+00
3.228628e-01   7.667790e+07   1.050000e+00
3.288774e-01   7.700708e+07   1.050000e+00
3.350041e-01   7.733317e+07   1.050000e+00
3.412449e-01   7.765618e+07   1.050000e+00
3.476019e-01   7.797615e+07   1.050000e+00
3.540774e-01   7.829313e+07   1.050000e+00
3.606735e-01   7.860713e+07   1.050000e+00
3.673925e-01   7.891821e+07   1.050000e+00
3.742366e-01   7.922640e+07   1.050000e+00
3.812083e-01   7.953172e+07   1.050000e+00
3.883098e-01   7.983423e+07   1.050000e+00
3.955436e-01   8.013395e+07   1.050000e+00
4.029122e-01   8.043092e+07   1.050000e+00
4.104181e-01   8.072517e+07   1.050000e+00
4.180637e-01   8.101675e+07   1.050000e+00
4.258518e-01   8.130569e+07   1.050000e+00
4.337850e-01   8.159203e+07   1.050000e+00
4.418660e-01   8.187580e+07   1.050000e+00
4.500975e-01   8.215704e+07   1.050000e+00
4.584824e-01   8.243578e+07   1.050000e+00
4.670234e-01   8.271207e+07   1.050000e+00
4.757236e-01   8.298593e+07   1.050000e+00
4.845859e-01   8.325742e+07   1.050000e+00
4.936132e-01   8.352655e+07   1.050000e+00
5.028087e-01   8.379338e+07   1.050000e+00
5.121755e-01   8.405792e+07   1.050000e+00
5.217169e-01   8.432023e+07   1.050000e+00
5.314359e-01   8.458034e+07   1.050000e+00
5.413360e-01   8.483828e+07   1.050000e+00
5.514206e-01   8.509410e+07   1.050000e+00
5.616930e-01   8.534781e+07   1.050000e+00
5.721568e-01   8.559947e+07   1.050000e+00
5.828155e-01   8.584911e+07   1.050000e+00
5.936727e-01   8.609676e+07   1.050000e+00
6.047322e-01   8.634246e+07   1.050000e+00
6.159978e-01   8.658624e+07   1.050000e+00
6.274732e-01   8.682815e+07   1.050000e+00
6.391624e-01   8.706821e+07   1.050000e+00
6.510694e-01   8.730646e+07   1.050000e+00
6.631981e-01   8.754294e+07   1.050000e+00
6.755528e-01   8.777768e+07   1.050000e+00
6.881377e-01   8.801072e+07   1.050000e+00
7.009570e-01   8.824208e+07   1.050000e+00
7.140151e-01   8.847182e+07   1.050000e+00
7.273165e-01   8.869995e+07   1.050000e+00
7.408657e-01   8.892652e+07   1.050000e+00
7.546673e-01   8.915157e+07   1.050000e+00
7.687260e-01   8.937511e+07   1.050000e+00
7.830465e-01   8.959720e+07   1.050000e+00
7.976339e-01   8.981786e+07   1.050000e+00
8.124930e-01   9.003713e+07   1.050000e+00
8.276289e-01   9.025504e+07   1.050000e+00
8.430468e-01   9.047163e+07   1.050000e+00
8.587519e-01   9.068693e+07   1.050000e+00
8.747496e-01   9.090097e+07   1.050000e+00
8.910453e-01   9.111380e+07   1.050000e+00
9.076446e-01   9.132544e+07   1.050000e+00
9.245531e-01   9.153593e+07   1.050000e+00
9.417766e-01   9.174530e+07   1.050000e+00
9.593209e-01   9.195359e+07   1.050000e+00
9.771921e-01   9.216083e+07   1.050000e+00
9.953962e-01   9.236706e+07   1.050000e+00
1.013939e+00   9.257230e+07   1.050000e+00
1.032828e+00   9.277660e+07   1.050000e+00
1.052069e+00   9.298000e+07   1.050000e+00
1.071668e+00   9.318251e+07   1.050000e+00
1.091632e+00   9.338419e+07   1.050000e+00
1.111968e+00   9.358506e+07   1.050000e+00
1.132683e+00   9.378516e+07   1.050000e+00
1.153783e+00   9.398452e+07   1.050000e+00
1.175277e+00   9.418319e+07   1.050000e+00
1.197171e+00   9.438119e+07   1.050000e+00
1.219473e+00   9.457856e+07   1.050000e+00
1.242191e+00   9.477534e+07   1.050000e+00
1.265332e+00   9.497157e+07   1.050000e+00
1.288904e+00   9.516728e+07   1.050000e+00
1.312915e+00   9.536251e+07   1.050000e+00
1.337373e+00   9.555729e+07   1.050000e+00
1.362287e+00   9.575167e+07   1.050000e+00
1.387665e+00   9.594568e+07   1.050000e+00
1.413516e+00   9.613937e+07   1.050000e+00
1.439848e+00   9.633276e+07   1.050000e+00
1.466671e+00   9.652591e+07   1.050000e+00
1.493993e+00   9.671885e+07   1.050000e+00
1.521825e+00   9.691162e+07   1.050000e+00
1.550175e+00   9.710426e+07   1.050000e+00
1.579053e+00   9.729682e+07   1.050000e+00
1.608469e+00   9.748933e+07   1.050000e+00
1.638434e+00   9.768185e+07   1.050000e+00
1.668956e+00   9.787441e+07   1.050000e+00
1.700047e+00   9.806707e+07   1.050000e+00
1.731717e+00   9.825986e+07   1.050000e+00
1.763977e+00   9.845283e+07   1.050000e+00
1.796838e+00   9.864604e+07   1.050000e+00
1.830312e+00   9.883952e+07   1.050000e+00
1.864409e+00   9.903334e+07   1.050000e+00
1.899141e+00   9.922754e+07   1.050000e+00
1.934520e+00   9.942217e+07   1.050000e+00
1.970558e+00   9.961729e+07   1.050000e+00
2.007267e+00   9.981296e+07   1.050000e+00
2.044661e+00   1.000092e+08   1.050000e+00
2.082751e+00   1.002061e+08   1.050000e+00
2.121550e+00   1.004038e+08   1.050000e+00
2.161073e+00   1.006022e+08   1.050000e+00
2.201331e+00   1.008014e+08   1.050000e+00
2.242340e+00   1.010016e+08   1.050000e+00
2.284112e+00   1.012027e+08   1.050000e+00
2.326663e+00   1.014049e+08   1.050000e+00
2.370006e+00   1.016082e+08   1.050000e+00
2.414157e+00   1.018126e+08   1.050000e+00
2.459130e+00   1.020184e+08   1.050000e+00
2.504942e+00   1.022254e+08   1.050000e+00
2.551606e+00   1.024339e+08   1.050000e+00
2.599140e+00   1.026439e+08   1.050000e+00
2.647559e+00   1.028555e+08   1.050000e+00
2.696881e+00   1.030688e+08   1.050000e+00
2.747121e+00   1.032838e+08   1.050000e+00
2.798297e+00   1.035007e+08   1.050000e+00
2.850426e+00   1.037196e+08   1.050000e+00
2.903527e+00   1.039406e+08   1.050000e+00
2.957617e+00   1.041637e+08   1.050000e+00
3.012714e+00   1.043892e+08   1.050000e+00
3.068838e+00   1.046171e+08   1.050000e+00
3.126007e+00   1.048475e+08   1.050000e+00
3.184242e+00   1.050806e+08   1.050000e+00
3.243561e+00   1.053165e+08   1.050000e+00
3.303985e+00   1.055554e+08   1.050000e+00
3.365535e+00   1.057973e+08   1.050000e+00
3.428231e+00   1.060425e+08   1.050000e+00
3.492096e+00   1.062911e+08   1.050000e+00
3.557150e+00   1.065433e+08   1.050000e+00
3.623416e+00   1.067992e+08   1.050000e+00
3.690917e+00   1.070591e+08   1.050000e+00
3.759675e+00   1.073230e+08   1.050000e+00
3.829714e+00   1.075914e+08   1.050000e+00
3.901058e+00   1.078642e+08   1.050000e+00
3.973730e+00   1.081418e+08   1.050000e+00
4.047757e+00   1.084245e+08   1.050000e+00
4.123163e+00   1.087123e+08   1.050000e+00
4.199973e+00   1.090057e+08   1.050000e+00
4.278214e+00   1.093048e+08   1.050000e+00
4.357913e+00   1.096100e+08   1.050000e+00
4.439097e+00   1.099216e+08   1.050000e+00
4.521792e+00   1.102398e+08   1.050000e+00
4.606029e+00   1.105651e+08   1.050000e+00
4.691835e+00   1.108977e+08   1.050000e+00
