# C13 + d > B11 + a   [C13_d__B11_a]   ref=TALYS2
# detailed balance: alpha=0.68729 beta=0 gamma=-59.9711  Q=5.1679
# T9                 rate                error
1.000000e-03 1.000000e-35 1.000000e+02
1.018629e-03 1.016103e-35 1.000000e+02
1.037605e-03 1.028161e-35 1.000000e+02
1.056935e-03 1.036176e-35 1.000000e+02
1.076624e-03 1.040205e-35 1.000000e+02
1.096681e-03 1.040353e-35 1.000000e+02
1.117111e-03 1.036770e-35 1.000000e+02
1.137921e-03 1.029646e-35 1.000000e+02
1.159120e-03 1.019204e-35 1.000000e+02
1.180713e-03 1.005692e-35 1.000000e+02
1.202708e-03 9.893822e-36 1.000000e+02
1.225114e-03 9.705579e-36 1.000000e+02
1.247936e-03 9.495130e-36 1.000000e+02
1.271184e-03 9.265442e-36 1.000000e+02
1.294865e-03 9.019466e-36 1.000000e+02
1.318987e-03 8.760090e-36 1.000000e+02
1.343558e-03 8.490105e-36 1.000000e+02
1.368587e-03 8.212171e-36 1.000000e+02
1.394083e-03 7.928791e-36 1.000000e+02
1.420053e-03 7.642294e-36 1.000000e+02
1.446507e-03 7.354817e-36 1.000000e+02
1.473454e-03 7.068302e-36 1.000000e+02
1.500903e-03 6.784488e-36 1.000000e+02
1.528864e-03 6.504912e-36 1.000000e+02
1.557345e-03 6.230915e-36 1.000000e+02
1.586357e-03 5.963648e-36 1.000000e+02
1.615909e-03 5.704079e-36 1.000000e+02
1.646012e-03 5.453008e-36 1.000000e+02
1.676675e-03 5.211077e-36 1.000000e+02
1.707910e-03 4.978783e-36 1.000000e+02
1.739726e-03 4.756493e-36 1.000000e+02
1.772136e-03 4.544461e-36 1.000000e+02
1.805149e-03 4.342833e-36 1.000000e+02
1.838777e-03 4.151672e-36 1.000000e+02
1.873032e-03 3.970961e-36 1.000000e+02
1.907924e-03 3.800620e-36 1.000000e+02
1.943467e-03 3.640520e-36 1.000000e+02
1.979672e-03 3.490487e-36 1.000000e+02
2.016551e-03 3.350318e-36 1.000000e+02
2.054117e-03 3.219786e-36 1.000000e+02
2.092383e-03 3.098651e-36 1.000000e+02
2.131362e-03 2.986667e-36 1.000000e+02
2.171068e-03 2.883585e-36 1.000000e+02
2.211512e-03 2.789167e-36 1.000000e+02
2.252711e-03 2.703183e-36 1.000000e+02
2.294676e-03 2.625425e-36 1.000000e+02
2.337424e-03 2.555702e-36 1.000000e+02
2.380968e-03 2.493855e-36 1.000000e+02
2.425323e-03 2.439755e-36 1.000000e+02
2.470504e-03 2.393310e-36 1.000000e+02
2.516527e-03 2.354469e-36 1.000000e+02
2.563407e-03 2.323228e-36 1.000000e+02
2.611161e-03 2.299638e-36 1.000000e+02
2.659804e-03 2.283807e-36 1.000000e+02
2.709354e-03 2.275911e-36 1.000000e+02
2.759826e-03 2.276202e-36 1.000000e+02
2.811239e-03 2.285018e-36 1.000000e+02
2.863610e-03 2.302795e-36 1.000000e+02
2.916956e-03 2.330085e-36 1.000000e+02
2.971296e-03 2.367568e-36 1.000000e+02
3.026648e-03 2.416038e-36 1.000000e+02
3.083031e-03 2.475404e-36 1.000000e+02
3.140465e-03 2.544506e-36 1.000000e+02
3.198969e-03 2.622048e-36 1.000000e+02
3.258562e-03 2.706589e-36 1.000000e+02
3.319266e-03 2.796489e-36 1.000000e+02
3.381101e-03 2.889864e-36 1.000000e+02
3.444087e-03 2.984560e-36 1.000000e+02
3.508247e-03 3.078124e-36 1.000000e+02
3.573602e-03 3.167814e-36 1.000000e+02
3.640175e-03 3.250616e-36 1.000000e+02
3.707988e-03 3.323292e-36 1.000000e+02
3.777064e-03 3.382464e-36 1.000000e+02
3.847427e-03 3.424712e-36 1.000000e+02
3.919100e-03 3.446720e-36 1.000000e+02
3.992109e-03 3.445431e-36 1.000000e+02
4.066478e-03 3.420889e-36 1.000000e+02
4.142232e-03 3.388127e-36 1.000000e+02
4.219398e-03 3.366771e-36 1.000000e+02
4.298001e-03 3.376054e-36 1.000000e+02
4.378069e-03 3.436019e-36 1.000000e+02
4.459628e-03 3.569940e-36 1.000000e+02
4.542706e-03 3.808323e-36 1.000000e+02
4.627332e-03 4.195493e-36 1.000000e+02
4.713535e-03 4.800839e-36 1.000000e+02
4.801343e-03 5.739111e-36 1.000000e+02
4.890787e-03 7.208987e-36 1.000000e+02
4.981898e-03 9.570056e-36 1.000000e+02
5.074705e-03 1.349067e-35 1.000000e+02
5.169242e-03 2.014101e-35 1.000000e+02
5.265540e-03 3.165764e-35 1.000000e+02
5.363631e-03 5.207628e-35 1.000000e+02
5.463550e-03 8.912107e-35 1.000000e+02
5.565331e-03 1.577300e-34 1.000000e+02
5.669007e-03 2.869833e-34 1.000000e+02
5.774615e-03 5.336074e-34 1.000000e+02
5.882190e-03 1.007917e-33 1.000000e+02
5.991770e-03 1.922559e-33 1.000000e+02
6.103390e-03 3.685925e-33 1.000000e+02
6.217090e-03 7.113970e-33 1.000000e+02
6.332908e-03 1.387120e-32 1.000000e+02
6.450884e-03 2.742143e-32 1.000000e+02
6.571058e-03 5.515423e-32 1.000000e+02
6.693470e-03 1.132708e-31 1.000000e+02
6.818162e-03 2.383667e-31 1.000000e+02
6.945178e-03 5.158220e-31 1.000000e+02
7.074559e-03 1.151678e-30 1.000000e+02
7.206351e-03 2.652971e-30 1.000000e+02
7.340598e-03 6.287773e-30 1.000000e+02
7.477346e-03 1.528906e-29 1.000000e+02
7.616642e-03 3.803128e-29 1.000000e+02
7.758532e-03 9.650152e-29 1.000000e+02
7.903066e-03 2.490675e-28 1.000000e+02
8.050292e-03 6.520758e-28 1.000000e+02
8.200261e-03 1.738801e-27 1.000000e+02
8.353023e-03 4.791418e-27 1.000000e+02
8.508632e-03 1.385520e-26 1.000000e+02
8.667139e-03 4.269412e-26 1.000000e+02
8.828599e-03 1.423645e-25 1.000000e+02
8.993067e-03 5.216581e-25 1.000000e+02
9.160598e-03 2.109450e-24 1.000000e+02
9.331251e-03 8.989402e-24 1.000000e+02
9.505083e-03 3.800616e-23 1.000000e+02
9.682153e-03 1.500797e-22 1.000000e+02
9.862522e-03 5.210958e-22 1.000000e+02
1.004625e-02 1.498166e-21 1.000000e+02
1.023340e-02 3.488355e-21 1.000000e+02
1.042404e-02 6.925075e-21 1.000000e+02
1.061823e-02 1.244422e-20 1.000000e+02
1.081604e-02 2.149048e-20 1.000000e+02
1.101753e-02 3.786627e-20 1.000000e+02
1.122277e-02 7.107685e-20 1.000000e+02
1.143184e-02 1.409234e-19 1.000000e+02
1.164481e-02 2.897363e-19 1.000000e+02
1.186174e-02 6.064196e-19 1.000000e+02
1.208271e-02 1.268728e-18 1.000000e+02
1.230780e-02 2.630099e-18 1.000000e+02
1.253708e-02 5.426391e-18 1.000000e+02
1.277063e-02 1.120315e-17 1.000000e+02
1.300854e-02 2.327099e-17 1.000000e+02
1.325087e-02 4.883193e-17 1.000000e+02
1.349772e-02 1.034357e-16 1.000000e+02
1.374917e-02 2.207519e-16 1.000000e+02
1.400531e-02 4.738010e-16 1.000000e+02
1.426621e-02 1.021162e-15 1.000000e+02
1.453198e-02 2.209784e-15 1.000000e+02
1.480269e-02 4.802346e-15 1.000000e+02
1.507845e-02 1.048324e-14 1.000000e+02
1.535935e-02 2.298701e-14 1.000000e+02
1.564548e-02 5.061432e-14 1.000000e+02
1.593694e-02 1.118694e-13 1.000000e+02
1.623382e-02 2.481029e-13 1.000000e+02
1.653624e-02 5.518325e-13 1.000000e+02
1.684430e-02 1.230215e-12 1.000000e+02
1.715809e-02 2.747236e-12 1.000000e+02
1.747773e-02 6.141801e-12 1.000000e+02
1.780332e-02 1.373799e-11 1.000000e+02
1.813498e-02 3.072731e-11 1.000000e+02
1.847281e-02 6.870045e-11 1.000000e+02
1.881694e-02 1.535441e-10 1.000000e+02
1.916748e-02 3.430522e-10 1.000000e+02
1.952456e-02 7.662230e-10 1.000000e+02
1.988828e-02 1.710933e-09 1.000000e+02
2.025878e-02 3.819111e-09 1.000000e+02
2.063618e-02 8.512048e-09 1.000000e+02
2.102061e-02 1.890839e-08 1.000000e+02
2.141220e-02 4.178552e-08 1.000000e+02
2.181109e-02 9.169602e-08 1.000000e+02
2.221741e-02 1.994485e-07 1.000000e+02
2.263130e-02 4.292092e-07 1.000000e+02
2.305289e-02 9.121527e-07 1.000000e+02
2.348235e-02 1.910860e-06 1.000000e+02
2.391980e-02 3.938719e-06 1.000000e+02
2.436540e-02 7.973494e-06 1.000000e+02
2.481930e-02 1.582384e-05 1.000000e+02
2.528166e-02 3.073352e-05 1.000000e+02
2.575263e-02 5.844723e-05 1.000000e+02
2.623238e-02 1.090678e-04 1.000000e+02
2.672106e-02 2.001508e-04 1.000000e+02
2.721885e-02 3.619878e-04 1.000000e+02
2.772591e-02 6.466265e-04 1.000000e+02
2.824241e-02 1.143361e-03 1.000000e+02
2.876854e-02 2.005539e-03 1.000000e+02
2.930447e-02 3.497388e-03 1.000000e+02
2.985038e-02 6.076717e-03 1.000000e+02
3.040646e-02 1.053398e-02 1.000000e+02
3.097291e-02 1.810191e-02 1.000000e+02
3.154990e-02 3.050945e-02 1.000000e+02
3.213764e-02 4.989690e-02 1.000000e+02
3.273634e-02 7.834175e-02 1.000000e+02
3.334618e-02 1.168274e-01 1.000000e+02
3.396739e-02 1.637114e-01 1.000000e+02
3.460016e-02 2.132787e-01 1.000000e+02
3.524473e-02 2.555649e-01 1.000000e+02
3.590130e-02 2.786707e-01 1.000000e+02
3.657011e-02 2.735705e-01 1.000000e+02
3.725137e-02 2.392138e-01 1.000000e+02
3.794533e-02 1.843288e-01 1.000000e+02
3.865221e-02 1.238345e-01 1.000000e+02
3.937226e-02 7.175998e-02 1.000000e+02
4.010573e-02 3.548758e-02 1.000000e+02
4.085286e-02 1.498143e-02 1.000000e+02
4.161391e-02 5.558426e-03 1.000000e+02
4.238913e-02 1.874720e-03 1.000000e+02
4.317880e-02 5.945271e-04 1.000000e+02
4.398317e-02 1.833674e-04 1.000000e+02
4.480254e-02 5.689210e-05 1.000000e+02
4.563716e-02 1.836649e-05 1.000000e+02
4.648734e-02 6.381296e-06 1.000000e+02
4.735335e-02 2.468112e-06 1.000000e+02
4.823549e-02 1.099154e-06 1.000000e+02
4.913407e-02 5.829811e-07 1.000000e+02
5.004939e-02 3.809047e-07 1.000000e+02
5.098176e-02 3.130874e-07 1.000000e+02
5.193150e-02 3.165416e-07 1.000000e+02
5.289893e-02 3.813459e-07 1.000000e+02
5.388438e-02 5.303194e-07 1.000000e+02
5.488820e-02 8.246947e-07 1.000000e+02
5.591071e-02 1.389291e-06 1.000000e+02
5.695227e-02 2.456091e-06 1.000000e+02
5.801323e-02 4.414221e-06 1.000000e+02
5.909396e-02 7.813203e-06 1.000000e+02
6.019482e-02 1.319450e-05 1.000000e+02
6.131619e-02 2.082636e-05 1.000000e+02
6.245845e-02 3.091255e-05 1.000000e+02
6.362198e-02 4.358071e-05 1.000000e+02
6.480720e-02 5.894257e-05 1.000000e+02
6.601449e-02 7.724605e-05 1.000000e+02
6.724427e-02 9.907706e-05 1.000000e+02
6.849697e-02 1.256194e-04 1.000000e+02
6.977300e-02 1.590246e-04 1.000000e+02
7.107280e-02 2.027665e-04 1.000000e+02
7.239681e-02 2.604808e-04 1.000000e+02
7.374549e-02 3.360369e-04 1.000000e+02
7.511929e-02 4.339187e-04 1.000000e+02
7.651869e-02 5.590085e-04 1.000000e+02
7.794416e-02 7.161362e-04 1.000000e+02
7.939618e-02 9.093239e-04 1.000000e+02
8.087525e-02 1.140627e-03 1.000000e+02
8.238187e-02 1.407606e-03 1.000000e+02
8.391656e-02 1.700857e-03 1.000000e+02
8.547985e-02 2.002780e-03 1.000000e+02
8.707225e-02 2.287213e-03 1.000000e+02
8.869432e-02 2.521256e-03 1.000000e+02
9.034660e-02 2.669990e-03 1.000000e+02
9.202967e-02 2.722650e-03 1.000000e+02
9.374409e-02 2.721104e-03 1.000000e+02
9.549045e-02 2.718511e-03 1.000000e+02
9.726934e-02 2.768925e-03 1.000000e+02
9.908137e-02 2.932558e-03 1.000000e+02
1.009272e-01 3.291278e-03 1.000000e+02
1.028073e-01 3.919239e-03 1.000000e+02
1.047225e-01 4.870843e-03 1.000000e+02
1.066734e-01 6.209885e-03 1.000000e+02
1.086606e-01 7.982740e-03 1.000000e+02
1.106848e-01 1.017143e-02 1.000000e+02
1.127468e-01 1.273295e-02 1.000000e+02
1.148472e-01 1.572017e-02 1.000000e+02
1.169866e-01 1.923539e-02 1.000000e+02
1.191660e-01 2.344194e-02 1.000000e+02
1.213859e-01 2.858616e-02 1.000000e+02
1.236472e-01 3.491903e-02 1.000000e+02
1.259506e-01 4.266417e-02 1.000000e+02
1.282970e-01 5.205772e-02 1.000000e+02
1.306870e-01 6.333645e-02 1.000000e+02
1.331216e-01 7.672401e-02 1.000000e+02
1.356015e-01 9.241520e-02 1.000000e+02
1.381276e-01 1.105407e-01 1.000000e+02
1.407008e-01 1.311322e-01 1.000000e+02
1.433219e-01 1.544159e-01 1.000000e+02
1.459919e-01 1.813820e-01 1.000000e+02
1.487115e-01 2.136611e-01 1.000000e+02
1.514819e-01 2.536859e-01 1.000000e+02
1.543038e-01 3.037660e-01 1.000000e+02
1.571784e-01 3.654856e-01 1.000000e+02
1.601064e-01 4.401887e-01 1.000000e+02
1.630891e-01 5.290568e-01 1.000000e+02
1.661273e-01 6.342003e-01 1.000000e+02
1.692220e-01 7.582733e-01 1.000000e+02
1.723745e-01 9.043045e-01 1.000000e+02
1.755856e-01 1.075741e+00 1.000000e+02
1.788566e-01 1.276495e+00 1.000000e+02
1.821885e-01 1.511022e+00 1.000000e+02
1.855825e-01 1.784737e+00 1.000000e+02
1.890397e-01 2.104263e+00 1.000000e+02
1.925614e-01 2.477539e+00 1.000000e+02
1.961486e-01 2.914121e+00 1.000000e+02
1.998026e-01 3.425574e+00 1.000000e+02
2.035248e-01 4.025683e+00 1.000000e+02
2.073162e-01 4.729627e+00 1.000000e+02
2.111783e-01 5.554620e+00 1.000000e+02
2.151123e-01 6.520502e+00 1.000000e+02
2.191197e-01 7.650078e+00 1.000000e+02
2.232016e-01 8.969495e+00 1.000000e+02
2.273597e-01 1.050864e+01 1.000000e+02
2.315951e-01 1.230156e+01 1.000000e+02
2.359095e-01 1.438694e+01 1.000000e+02
2.403043e-01 1.680855e+01 1.000000e+02
2.447809e-01 1.961572e+01 1.000000e+02
2.493409e-01 2.286388e+01 1.000000e+02
2.539859e-01 2.661540e+01 1.000000e+02
2.587174e-01 3.094290e+01 1.000000e+02
2.635371e-01 3.592999e+01 1.000000e+02
2.684465e-01 4.167207e+01 1.000000e+02
2.734474e-01 4.827786e+01 1.000000e+02
2.785414e-01 5.587142e+01 1.000000e+02
2.837304e-01 6.459417e+01 1.000000e+02
2.890160e-01 7.460749e+01 1.000000e+02
2.944000e-01 8.609551e+01 1.000000e+02
2.998844e-01 9.926838e+01 1.000000e+02
3.054710e-01 1.143642e+02 1.000000e+02
3.111616e-01 1.316449e+02 1.000000e+02
3.169582e-01 1.514017e+02 1.000000e+02
3.228628e-01 1.739596e+02 1.000000e+02
3.288774e-01 1.996802e+02 1.000000e+02
3.350041e-01 2.289648e+02 1.000000e+02
3.412449e-01 2.622572e+02 1.000000e+02
3.476019e-01 3.000470e+02 1.000000e+02
3.540774e-01 3.428743e+02 1.000000e+02
3.606735e-01 3.913649e+02 1.000000e+02
3.673925e-01 4.462452e+02 1.000000e+02
3.742366e-01 5.083398e+02 1.000000e+02
3.812083e-01 5.785857e+02 1.000000e+02
3.883098e-01 6.580490e+02 1.000000e+02
3.955436e-01 7.479455e+02 1.000000e+02
4.029122e-01 8.496613e+02 1.000000e+02
4.104181e-01 9.646819e+02 1.000000e+02
4.180637e-01 1.094520e+03 1.000000e+02
4.258518e-01 1.240795e+03 1.000000e+02
4.337850e-01 1.405230e+03 1.000000e+02
4.418660e-01 1.589648e+03 1.000000e+02
4.500975e-01 1.795956e+03 1.000000e+02
4.584824e-01 2.026233e+03 1.000000e+02
4.670234e-01 2.283108e+03 1.000000e+02
4.757236e-01 2.569642e+03 1.000000e+02
4.845859e-01 2.889307e+03 1.000000e+02
4.936132e-01 3.246051e+03 1.000000e+02
5.028087e-01 3.644375e+03 1.000000e+02
5.121755e-01 4.089160e+03 1.000000e+02
5.217169e-01 4.585420e+03 1.000000e+02
5.314359e-01 5.138593e+03 1.000000e+02
5.413360e-01 5.754603e+03 1.000000e+02
5.514206e-01 6.439893e+03 1.000000e+02
5.616930e-01 7.201453e+03 1.000000e+02
5.721568e-01 8.046850e+03 1.000000e+02
5.828155e-01 8.984255e+03 1.000000e+02
5.936727e-01 1.002247e+04 1.000000e+02
6.047322e-01 1.117094e+04 1.000000e+02
6.159978e-01 1.244008e+04 1.000000e+02
6.274732e-01 1.384144e+04 1.000000e+02
6.391624e-01 1.538761e+04 1.000000e+02
6.510694e-01 1.709226e+04 1.000000e+02
6.631981e-01 1.897029e+04 1.000000e+02
6.755528e-01 2.103785e+04 1.000000e+02
6.881377e-01 2.331250e+04 1.000000e+02
7.009570e-01 2.581330e+04 1.000000e+02
7.140151e-01 2.856084e+04 1.000000e+02
7.273165e-01 3.157701e+04 1.000000e+02
7.408657e-01 3.488534e+04 1.000000e+02
7.546673e-01 3.851110e+04 1.000000e+02
7.687260e-01 4.248141e+04 1.000000e+02
7.830465e-01 4.682534e+04 1.000000e+02
7.976339e-01 5.157405e+04 1.000000e+02
8.124930e-01 5.676089e+04 1.000000e+02
8.276289e-01 6.242177e+04 1.000000e+02
8.430468e-01 6.859528e+04 1.000000e+02
8.587519e-01 7.532269e+04 1.000000e+02
8.747496e-01 8.264813e+04 1.000000e+02
8.910453e-01 9.061876e+04 1.000000e+02
9.076446e-01 9.928491e+04 1.000000e+02
9.245531e-01 1.086998e+05 1.000000e+02
9.417766e-01 1.189194e+05 1.000000e+02
9.593209e-01 1.300029e+05 1.000000e+02
9.771921e-01 1.420131e+05 1.000000e+02
9.953962e-01 1.550161e+05 1.000000e+02
1.013939e+00 1.690815e+05 1.000000e+02
1.032828e+00 1.842838e+05 1.000000e+02
1.052069e+00 2.007019e+05 1.000000e+02
1.071668e+00 2.184191e+05 1.000000e+02
1.091632e+00 2.375233e+05 1.000000e+02
1.111968e+00 2.581070e+05 1.000000e+02
1.132683e+00 2.802676e+05 1.000000e+02
1.153783e+00 3.041075e+05 1.000000e+02
1.175277e+00 3.297342e+05 1.000000e+02
1.197171e+00 3.572607e+05 1.000000e+02
1.219473e+00 3.868053e+05 1.000000e+02
1.242191e+00 4.184918e+05 1.000000e+02
1.265332e+00 4.524505e+05 1.000000e+02
1.288904e+00 4.888248e+05 1.000000e+02
1.312915e+00 5.277721e+05 1.000000e+02
1.337373e+00 5.694603e+05 1.000000e+02
1.362287e+00 6.140688e+05 1.000000e+02
1.387665e+00 6.617900e+05 1.000000e+02
1.413516e+00 7.128297e+05 1.000000e+02
1.439848e+00 7.674086e+05 1.000000e+02
1.466671e+00 8.257635e+05 1.000000e+02
1.493993e+00 8.881488e+05 1.000000e+02
1.521825e+00 9.548283e+05 1.000000e+02
1.550175e+00 1.026004e+06 1.000000e+02
1.579053e+00 1.101833e+06 1.000000e+02
1.608469e+00 1.182453e+06 1.000000e+02
1.638434e+00 1.267980e+06 1.000000e+02
1.668956e+00 1.358500e+06 1.000000e+02
1.700047e+00 1.454066e+06 1.000000e+02
1.731717e+00 1.554694e+06 1.000000e+02
1.763977e+00 1.660357e+06 1.000000e+02
1.796838e+00 1.771149e+06 1.000000e+02
1.830312e+00 1.887369e+06 1.000000e+02
1.864409e+00 2.009372e+06 1.000000e+02
1.899141e+00 2.137566e+06 1.000000e+02
1.934520e+00 2.272416e+06 1.000000e+02
1.970558e+00 2.414455e+06 1.000000e+02
2.007267e+00 2.564290e+06 1.000000e+02
2.044661e+00 2.722494e+06 1.000000e+02
2.082751e+00 2.889425e+06 1.000000e+02
2.121550e+00 3.065404e+06 1.000000e+02
2.161073e+00 3.250747e+06 1.000000e+02
2.201331e+00 3.445760e+06 1.000000e+02
2.242340e+00 3.650737e+06 1.000000e+02
2.284112e+00 3.865955e+06 1.000000e+02
2.326663e+00 4.091674e+06 1.000000e+02
2.370006e+00 4.328132e+06 1.000000e+02
2.414157e+00 4.575542e+06 1.000000e+02
2.459130e+00 4.834085e+06 1.000000e+02
2.504942e+00 5.103909e+06 1.000000e+02
2.551606e+00 5.385181e+06 1.000000e+02
2.599140e+00 5.678205e+06 1.000000e+02
2.647559e+00 5.983324e+06 1.000000e+02
2.696881e+00 6.300889e+06 1.000000e+02
2.747121e+00 6.631260e+06 1.000000e+02
2.798297e+00 6.974812e+06 1.000000e+02
2.850426e+00 7.331929e+06 1.000000e+02
2.903527e+00 7.703011e+06 1.000000e+02
2.957617e+00 8.088472e+06 1.000000e+02
3.012714e+00 8.488742e+06 1.000000e+02
3.068838e+00 8.904221e+06 1.000000e+02
3.126007e+00 9.335226e+06 1.000000e+02
3.184242e+00 9.782050e+06 1.000000e+02
3.243561e+00 1.024498e+07 1.000000e+02
3.303985e+00 1.072427e+07 1.000000e+02
3.365535e+00 1.122020e+07 1.000000e+02
3.428231e+00 1.173301e+07 1.000000e+02
3.492096e+00 1.226291e+07 1.000000e+02
3.557150e+00 1.281012e+07 1.000000e+02
3.623416e+00 1.337491e+07 1.000000e+02
3.690917e+00 1.395752e+07 1.000000e+02
3.759675e+00 1.455820e+07 1.000000e+02
3.829714e+00 1.517720e+07 1.000000e+02
3.901058e+00 1.581476e+07 1.000000e+02
3.973730e+00 1.647110e+07 1.000000e+02
4.047757e+00 1.714645e+07 1.000000e+02
4.123163e+00 1.784098e+07 1.000000e+02
4.199973e+00 1.855483e+07 1.000000e+02
4.278214e+00 1.928812e+07 1.000000e+02
4.357913e+00 2.004095e+07 1.000000e+02
4.439097e+00 2.081339e+07 1.000000e+02
4.521792e+00 2.160552e+07 1.000000e+02
4.606029e+00 2.241737e+07 1.000000e+02
4.691835e+00 2.324896e+07 1.000000e+02
4.779239e+00 2.410027e+07 1.000000e+02
4.868271e+00 2.497130e+07 1.000000e+02
4.958962e+00 2.586198e+07 1.000000e+02
5.051342e+00 2.677223e+07 1.000000e+02
5.145444e+00 2.770194e+07 1.000000e+02
5.241298e+00 2.865090e+07 1.000000e+02
5.338938e+00 2.961892e+07 1.000000e+02
5.438397e+00 3.060573e+07 1.000000e+02
5.539709e+00 3.161105e+07 1.000000e+02
5.642908e+00 3.263456e+07 1.000000e+02
5.748030e+00 3.367590e+07 1.000000e+02
5.855110e+00 3.473468e+07 1.000000e+02
5.964185e+00 3.581047e+07 1.000000e+02
6.075292e+00 3.690280e+07 1.000000e+02
6.188468e+00 3.801112e+07 1.000000e+02
6.303753e+00 3.913480e+07 1.000000e+02
6.421186e+00 4.027319e+07 1.000000e+02
6.540806e+00 4.142556e+07 1.000000e+02
6.662655e+00 4.259116e+07 1.000000e+02
6.786773e+00 4.376918e+07 1.000000e+02
6.913204e+00 4.495877e+07 1.000000e+02
7.041990e+00 4.615901e+07 1.000000e+02
7.173175e+00 4.736895e+07 1.000000e+02
7.306804e+00 4.858750e+07 1.000000e+02
7.442922e+00 4.981355e+07 1.000000e+02
7.581576e+00 5.104592e+07 1.000000e+02
7.722814e+00 5.228338e+07 1.000000e+02
7.866682e+00 5.352465e+07 1.000000e+02
8.013230e+00 5.476841e+07 1.000000e+02
8.162509e+00 5.601328e+07 1.000000e+02
8.314568e+00 5.725787e+07 1.000000e+02
8.469460e+00 5.850073e+07 1.000000e+02
8.627237e+00 5.974038e+07 1.000000e+02
8.787954e+00 6.097531e+07 1.000000e+02
8.951665e+00 6.220395e+07 1.000000e+02
9.118425e+00 6.342473e+07 1.000000e+02
9.288292e+00 6.463601e+07 1.000000e+02
9.461324e+00 6.583616e+07 1.000000e+02
9.637579e+00 6.702351e+07 1.000000e+02
9.817117e+00 6.819636e+07 1.000000e+02
1.000000e+01 6.935300e+07 1.000000e+02
