# B12 + p > Be9 + a   [B12_p__Be9_a]   ref=TALYS2, Koning et al. 2023
# detailed balance: alpha=0.29172 beta=0 gamma=-79.9011  Q=6.8854
# T9                 rate                error
1.000000e-03   1.000000e-35   1.000000e+02
1.018629e-03   1.061580e-35   1.000000e+02
1.037605e-03   1.127695e-35   1.000000e+02
1.056935e-03   1.198852e-35   1.000000e+02
1.076624e-03   1.275628e-35   1.000000e+02
1.096681e-03   1.358678e-35   1.000000e+02
1.117111e-03   1.448744e-35   1.000000e+02
1.137921e-03   1.546676e-35   1.000000e+02
1.159120e-03   1.653441e-35   1.000000e+02
1.180713e-03   1.770146e-35   1.000000e+02
1.202708e-03   1.898059e-35   1.000000e+02
1.225114e-03   2.038637e-35   1.000000e+02
1.247936e-03   2.193557e-35   1.000000e+02
1.271184e-03   2.364755e-35   1.000000e+02
1.294865e-03   2.554470e-35   1.000000e+02
1.318987e-03   2.765299e-35   1.000000e+02
1.343558e-03   3.000264e-35   1.000000e+02
1.368587e-03   3.262889e-35   1.000000e+02
1.394083e-03   3.557293e-35   1.000000e+02
1.420053e-03   3.888310e-35   1.000000e+02
1.446507e-03   4.261627e-35   1.000000e+02
1.473454e-03   4.683952e-35   1.000000e+02
1.500903e-03   5.163227e-35   1.000000e+02
1.528864e-03   5.708883e-35   1.000000e+02
1.557345e-03   6.332154e-35   1.000000e+02
1.586357e-03   7.046468e-35   1.000000e+02
1.615909e-03   7.867931e-35   1.000000e+02
1.646012e-03   8.815924e-35   1.000000e+02
1.676675e-03   9.913858e-35   1.000000e+02
1.707910e-03   1.119011e-34   1.000000e+02
1.739726e-03   1.267922e-34   1.000000e+02
1.772136e-03   1.442334e-34   1.000000e+02
1.805149e-03   1.647419e-34   1.000000e+02
1.838777e-03   1.889541e-34   1.000000e+02
1.873032e-03   2.176566e-34   1.000000e+02
1.907924e-03   2.518257e-34   1.000000e+02
1.943467e-03   2.926781e-34   1.000000e+02
1.979672e-03   3.417368e-34   1.000000e+02
2.016551e-03   4.009163e-34   1.000000e+02
2.054117e-03   4.726346e-34   1.000000e+02
2.092383e-03   5.599593e-34   1.000000e+02
2.131362e-03   6.668004e-34   1.000000e+02
2.171068e-03   7.981655e-34   1.000000e+02
2.211512e-03   9.604993e-34   1.000000e+02
2.252711e-03   1.162137e-33   1.000000e+02
2.294676e-03   1.413916e-33   1.000000e+02
2.337424e-03   1.729993e-33   1.000000e+02
2.380968e-03   2.128970e-33   1.000000e+02
2.425323e-03   2.635410e-33   1.000000e+02
2.470504e-03   3.281933e-33   1.000000e+02
2.516527e-03   4.112095e-33   1.000000e+02
2.563407e-03   5.184395e-33   1.000000e+02
2.611161e-03   6.577845e-33   1.000000e+02
2.659804e-03   8.399805e-33   1.000000e+02
2.709354e-03   1.079702e-32   1.000000e+02
2.759826e-03   1.397132e-32   1.000000e+02
2.811239e-03   1.820198e-32   1.000000e+02
2.863610e-03   2.387795e-32   1.000000e+02
2.916956e-03   3.154437e-32   1.000000e+02
2.971296e-03   4.197034e-32   1.000000e+02
3.026648e-03   5.624913e-32   1.000000e+02
3.083031e-03   7.597886e-32   1.000000e+02
3.140465e-03   1.035451e-31   1.000000e+02
3.198969e-03   1.425251e-31   1.000000e+02
3.258562e-03   1.983557e-31   1.000000e+02
3.319266e-03   2.794183e-31   1.000000e+02
3.381101e-03   3.988298e-31   1.000000e+02
3.444087e-03   5.774428e-31   1.000000e+02
3.508247e-03   8.489549e-31   1.000000e+02
3.573602e-03   1.268762e-30   1.000000e+02
3.640175e-03   1.929575e-30   1.000000e+02
3.707988e-03   2.989472e-30   1.000000e+02
3.777064e-03   4.723292e-30   1.000000e+02
3.847427e-03   7.618652e-30   1.000000e+02
3.919100e-03   1.255915e-29   1.000000e+02
3.992109e-03   2.118152e-29   1.000000e+02
4.066478e-03   3.657026e-29   1.000000e+02
4.142232e-03   6.450495e-29   1.000000e+02
4.219398e-03   1.158992e-28   1.000000e+02
4.298001e-03   2.115037e-28   1.000000e+02
4.378069e-03   3.908716e-28   1.000000e+02
4.459628e-03   7.293849e-28   1.000000e+02
4.542706e-03   1.370295e-27   1.000000e+02
4.627332e-03   2.584245e-27   1.000000e+02
4.713535e-03   4.878025e-27   1.000000e+02
4.801343e-03   9.189102e-27   1.000000e+02
4.890787e-03   1.722459e-26   1.000000e+02
4.981898e-03   3.203312e-26   1.000000e+02
5.074705e-03   5.896153e-26   1.000000e+02
5.169242e-03   1.075432e-25   1.000000e+02
5.265540e-03   1.949255e-25   1.000000e+02
5.363631e-03   3.520923e-25   1.000000e+02
5.463550e-03   6.355897e-25   1.000000e+02
5.565331e-03   1.149899e-24   1.000000e+02
5.669007e-03   2.090913e-24   1.000000e+02
5.774615e-03   3.832088e-24   1.000000e+02
5.882190e-03   7.098861e-24   1.000000e+02
5.991770e-03   1.332987e-23   1.000000e+02
6.103390e-03   2.543267e-23   1.000000e+02
6.217090e-03   4.931748e-23   1.000000e+02
6.332908e-03   9.715771e-23   1.000000e+02
6.450884e-03   1.943772e-22   1.000000e+02
6.571058e-03   3.947564e-22   1.000000e+02
6.693470e-03   8.134917e-22   1.000000e+02
6.818162e-03   1.700362e-21   1.000000e+02
6.945178e-03   3.603446e-21   1.000000e+02
7.074559e-03   7.739213e-21   1.000000e+02
7.206351e-03   1.683120e-20   1.000000e+02
7.340598e-03   3.702241e-20   1.000000e+02
7.477346e-03   8.226849e-20   1.000000e+02
7.616642e-03   1.844630e-19   1.000000e+02
7.758532e-03   4.168498e-19   1.000000e+02
7.903066e-03   9.482703e-19   1.000000e+02
8.050292e-03   2.169102e-18   1.000000e+02
8.200261e-03   5.000088e-18   1.000000e+02
8.353023e-03   1.169982e-17   1.000000e+02
8.508632e-03   2.800416e-17   1.000000e+02
8.667139e-03   6.909497e-17   1.000000e+02
8.828599e-03   1.770881e-16   1.000000e+02
8.993067e-03   4.751051e-16   1.000000e+02
9.160598e-03   1.336502e-15   1.000000e+02
9.331251e-03   3.842271e-15   1.000000e+02
9.505083e-03   1.091800e-14   1.000000e+02
9.682153e-03   2.965739e-14   1.000000e+02
9.862522e-03   7.448267e-14   1.000000e+02
1.004625e-02   1.672962e-13   1.000000e+02
1.023340e-02   3.322176e-13   1.000000e+02
1.042404e-02   6.013970e-13   1.000000e+02
1.061823e-02   1.028253e-12   1.000000e+02
1.081604e-02   1.720430e-12   1.000000e+02
1.101753e-02   2.918560e-12   1.000000e+02
1.122277e-02   5.149821e-12   1.000000e+02
1.143184e-02   9.403848e-12   1.000000e+02
1.164481e-02   1.757695e-11   1.000000e+02
1.186174e-02   3.326140e-11   1.000000e+02
1.208271e-02   6.303526e-11   1.000000e+02
1.230780e-02   1.190124e-10   1.000000e+02
1.253708e-02   2.244328e-10   1.000000e+02
1.277063e-02   4.240720e-10   1.000000e+02
1.300854e-02   8.054250e-10   1.000000e+02
1.325087e-02   1.541230e-09   1.000000e+02
1.349772e-02   2.969870e-09   1.000000e+02
1.374917e-02   5.756042e-09   1.000000e+02
1.400531e-02   1.120769e-08   1.000000e+02
1.426621e-02   2.190259e-08   1.000000e+02
1.453198e-02   4.295294e-08   1.000000e+02
1.480269e-02   8.453199e-08   1.000000e+02
1.507845e-02   1.669522e-07   1.000000e+02
1.535935e-02   3.308806e-07   1.000000e+02
1.564548e-02   6.578706e-07   1.000000e+02
1.593694e-02   1.311816e-06   1.000000e+02
1.623382e-02   2.622602e-06   1.000000e+02
1.653624e-02   5.254266e-06   1.000000e+02
1.684430e-02   1.054318e-05   1.000000e+02
1.715809e-02   2.117733e-05   1.000000e+02
1.747773e-02   4.255691e-05   1.000000e+02
1.780332e-02   8.551215e-05   1.000000e+02
1.813498e-02   1.717146e-04   1.000000e+02
1.847281e-02   3.444898e-04   1.000000e+02
1.881694e-02   6.904626e-04   1.000000e+02
1.916748e-02   1.382649e-03   1.000000e+02
1.952456e-02   2.766339e-03   1.000000e+02
1.988828e-02   5.530110e-03   1.000000e+02
2.025878e-02   1.104507e-02   1.000000e+02
2.063618e-02   2.201618e-02   1.000000e+02
2.102061e-02   4.372439e-02   1.000000e+02
2.141220e-02   8.637355e-02   1.000000e+02
2.181109e-02   1.694259e-01   1.000000e+02
2.221741e-02   3.294483e-01   1.000000e+02
2.263130e-02   6.339721e-01   1.000000e+02
2.305289e-02   1.205299e+00   1.000000e+02
2.348235e-02   2.260104e+00   1.000000e+02
2.391980e-02   4.172892e+00   1.000000e+02
2.436540e-02   7.573349e+00   1.000000e+02
2.481930e-02   1.348800e+01   1.000000e+02
2.528166e-02   2.353653e+01   1.000000e+02
2.575263e-02   4.025987e+01   1.000000e+02
2.623238e-02   6.763902e+01   1.000000e+02
2.672106e-02   1.118389e+02   1.000000e+02
2.721885e-02   1.823625e+02   1.000000e+02
2.772591e-02   2.938332e+02   1.000000e+02
2.824241e-02   4.687754e+02   1.000000e+02
2.876854e-02   7.419993e+02   1.000000e+02
2.930447e-02   1.167597e+03   1.000000e+02
2.985038e-02   1.830243e+03   1.000000e+02
3.040646e-02   2.861509e+03   1.000000e+02
3.097291e-02   4.436002e+03   1.000000e+02
3.154990e-02   6.752225e+03   1.000000e+02
3.213764e-02   9.992909e+03   1.000000e+02
3.273634e-02   1.423829e+04   1.000000e+02
3.334618e-02   1.934088e+04   1.000000e+02
3.396739e-02   2.480149e+04   1.000000e+02
3.460016e-02   2.972994e+04   1.000000e+02
3.524473e-02   3.298801e+04   1.000000e+02
3.590130e-02   3.355021e+04   1.000000e+02
3.657011e-02   3.097009e+04   1.000000e+02
3.725137e-02   2.569385e+04   1.000000e+02
3.794533e-02   1.897084e+04   1.000000e+02
3.865221e-02   1.234371e+04   1.000000e+02
3.937226e-02   7.008706e+03   1.000000e+02
4.010573e-02   3.438768e+03   1.000000e+02
4.085286e-02   1.458395e+03   1.000000e+02
4.161391e-02   5.491795e+02   1.000000e+02
4.238913e-02   1.894293e+02   1.000000e+02
4.317880e-02   6.174478e+01   1.000000e+02
4.398317e-02   1.962005e+01   1.000000e+02
4.480254e-02   6.270083e+00   1.000000e+02
4.563716e-02   2.078962e+00   1.000000e+02
4.648734e-02   7.378130e-01   1.000000e+02
4.735335e-02   2.891340e-01   1.000000e+02
4.823549e-02   1.290720e-01   1.000000e+02
4.913407e-02   6.771282e-02   1.000000e+02
5.004939e-02   4.306675e-02   1.000000e+02
5.098176e-02   3.385762e-02   1.000000e+02
5.193150e-02   3.222474e-02   1.000000e+02
5.289893e-02   3.605827e-02   1.000000e+02
5.388438e-02   4.606456e-02   1.000000e+02
5.488820e-02   6.524383e-02   1.000000e+02
5.591071e-02   9.949159e-02   1.000000e+02
5.695227e-02   1.586250e-01   1.000000e+02
5.801323e-02   2.567789e-01   1.000000e+02
5.909396e-02   4.098390e-01   1.000000e+02
6.019482e-02   6.263436e-01   1.000000e+02
6.131619e-02   8.993314e-01   1.000000e+02
6.245845e-02   1.220143e+00   1.000000e+02
6.362198e-02   1.578806e+00   1.000000e+02
6.480720e-02   1.966600e+00   1.000000e+02
6.601449e-02   2.380214e+00   1.000000e+02
6.724427e-02   2.825344e+00   1.000000e+02
6.849697e-02   3.319897e+00   1.000000e+02
6.977300e-02   3.897795e+00   1.000000e+02
7.107280e-02   4.609964e+00   1.000000e+02
7.239681e-02   5.493931e+00   1.000000e+02
7.374549e-02   6.577582e+00   1.000000e+02
7.511929e-02   7.887367e+00   1.000000e+02
7.651869e-02   9.444216e+00   1.000000e+02
7.794416e-02   1.125779e+01   1.000000e+02
7.939618e-02   1.331924e+01   1.000000e+02
8.087525e-02   1.559254e+01   1.000000e+02
8.238187e-02   1.799859e+01   1.000000e+02
8.391656e-02   2.040607e+01   1.000000e+02
8.547985e-02   2.263549e+01   1.000000e+02
8.707225e-02   2.447038e+01   1.000000e+02
8.869432e-02   2.568161e+01   1.000000e+02
9.034660e-02   2.606505e+01   1.000000e+02
9.202967e-02   2.563528e+01   1.000000e+02
9.374409e-02   2.479930e+01   1.000000e+02
9.549045e-02   2.399267e+01   1.000000e+02
9.726934e-02   2.360320e+01   1.000000e+02
9.908137e-02   2.400668e+01   1.000000e+02
1.009272e-01   2.565048e+01   1.000000e+02
1.028073e-01   2.882017e+01   1.000000e+02
1.047225e-01   3.357942e+01   1.000000e+02
1.066734e-01   3.998350e+01   1.000000e+02
1.086606e-01   4.794850e+01   1.000000e+02
1.106848e-01   5.707724e+01   1.000000e+02
1.127468e-01   6.694154e+01   1.000000e+02
1.148472e-01   7.760781e+01   1.000000e+02
1.169866e-01   8.931463e+01   1.000000e+02
1.191660e-01   1.024655e+02   1.000000e+02
1.213859e-01   1.176535e+02   1.000000e+02
1.236472e-01   1.353358e+02   1.000000e+02
1.259506e-01   1.557573e+02   1.000000e+02
1.282970e-01   1.791168e+02   1.000000e+02
1.306870e-01   2.055432e+02   1.000000e+02
1.331216e-01   2.350942e+02   1.000000e+02
1.356015e-01   2.677727e+02   1.000000e+02
1.381276e-01   3.034604e+02   1.000000e+02
1.407008e-01   3.418858e+02   1.000000e+02
1.433219e-01   3.831723e+02   1.000000e+02
1.459919e-01   4.286875e+02   1.000000e+02
1.487115e-01   4.805631e+02   1.000000e+02
1.514819e-01   5.417288e+02   1.000000e+02
1.543038e-01   6.143248e+02   1.000000e+02
1.571784e-01   6.990031e+02   1.000000e+02
1.601064e-01   7.958995e+02   1.000000e+02
1.630891e-01   9.048701e+02   1.000000e+02
1.661273e-01   1.026827e+03   1.000000e+02
1.692220e-01   1.163057e+03   1.000000e+02
1.723745e-01   1.314943e+03   1.000000e+02
1.755856e-01   1.483969e+03   1.000000e+02
1.788566e-01   1.671725e+03   1.000000e+02
1.821885e-01   1.879928e+03   1.000000e+02
1.855825e-01   2.110735e+03   1.000000e+02
1.890397e-01   2.366817e+03   1.000000e+02
1.925614e-01   2.651289e+03   1.000000e+02
1.961486e-01   2.967794e+03   1.000000e+02
1.998026e-01   3.320611e+03   1.000000e+02
2.035248e-01   3.714592e+03   1.000000e+02
2.073162e-01   4.154455e+03   1.000000e+02
2.111783e-01   4.645128e+03   1.000000e+02
2.151123e-01   5.191984e+03   1.000000e+02
2.191197e-01   5.800856e+03   1.000000e+02
2.232016e-01   6.478060e+03   1.000000e+02
2.273597e-01   7.230413e+03   1.000000e+02
2.315951e-01   8.065247e+03   1.000000e+02
2.359095e-01   8.990415e+03   1.000000e+02
2.403043e-01   1.001430e+04   1.000000e+02
2.447809e-01   1.114579e+04   1.000000e+02
2.493409e-01   1.239431e+04   1.000000e+02
2.539859e-01   1.376988e+04   1.000000e+02
2.587174e-01   1.528412e+04   1.000000e+02
2.635371e-01   1.695000e+04   1.000000e+02
2.684465e-01   1.878167e+04   1.000000e+02
2.734474e-01   2.079463e+04   1.000000e+02
2.785414e-01   2.300579e+04   1.000000e+02
2.837304e-01   2.543366e+04   1.000000e+02
2.890160e-01   2.809848e+04   1.000000e+02
2.944000e-01   3.102244e+04   1.000000e+02
2.998844e-01   3.422983e+04   1.000000e+02
3.054710e-01   3.774689e+04   1.000000e+02
3.111616e-01   4.160016e+04   1.000000e+02
3.169582e-01   4.581743e+04   1.000000e+02
3.228628e-01   5.042812e+04   1.000000e+02
3.288774e-01   5.546325e+04   1.000000e+02
3.350041e-01   6.095548e+04   1.000000e+02
3.412449e-01   6.693904e+04   1.000000e+02
3.476019e-01   7.344967e+04   1.000000e+02
3.540774e-01   8.052488e+04   1.000000e+02
3.606735e-01   8.820888e+04   1.000000e+02
3.673925e-01   9.655329e+04   1.000000e+02
3.742366e-01   1.056150e+05   1.000000e+02
3.812083e-01   1.154565e+05   1.000000e+02
3.883098e-01   1.261469e+05   1.000000e+02
3.955436e-01   1.377627e+05   1.000000e+02
4.029122e-01   1.503880e+05   1.000000e+02
4.104181e-01   1.641044e+05   1.000000e+02
4.180637e-01   1.789819e+05   1.000000e+02
4.258518e-01   1.950895e+05   1.000000e+02
4.337850e-01   2.124948e+05   1.000000e+02
4.418660e-01   2.312629e+05   1.000000e+02
4.500975e-01   2.514555e+05   1.000000e+02
4.584824e-01   2.731387e+05   1.000000e+02
4.670234e-01   2.964169e+05   1.000000e+02
4.757236e-01   3.214150e+05   1.000000e+02
4.845859e-01   3.482715e+05   1.000000e+02
4.936132e-01   3.771414e+05   1.000000e+02
5.028087e-01   4.081972e+05   1.000000e+02
5.121755e-01   4.416123e+05   1.000000e+02
5.217169e-01   4.775403e+05   1.000000e+02
5.314359e-01   5.161382e+05   1.000000e+02
5.413360e-01   5.575687e+05   1.000000e+02
5.514206e-01   6.020001e+05   1.000000e+02
5.616930e-01   6.496059e+05   1.000000e+02
5.721568e-01   7.005640e+05   1.000000e+02
5.828155e-01   7.550566e+05   1.000000e+02
5.936727e-01   8.132694e+05   1.000000e+02
6.047322e-01   8.753911e+05   1.000000e+02
6.159978e-01   9.416263e+05   1.000000e+02
6.274732e-01   1.012204e+06   1.000000e+02
6.391624e-01   1.087363e+06   1.000000e+02
6.510694e-01   1.167354e+06   1.000000e+02
6.631981e-01   1.252440e+06   1.000000e+02
6.755528e-01   1.342894e+06   1.000000e+02
6.881377e-01   1.439003e+06   1.000000e+02
7.009570e-01   1.541065e+06   1.000000e+02
7.140151e-01   1.649390e+06   1.000000e+02
7.273165e-01   1.764281e+06   1.000000e+02
7.408657e-01   1.886052e+06   1.000000e+02
7.546673e-01   2.015022e+06   1.000000e+02
7.687260e-01   2.151518e+06   1.000000e+02
7.830465e-01   2.295874e+06   1.000000e+02
7.976339e-01   2.448431e+06   1.000000e+02
8.124930e-01   2.609539e+06   1.000000e+02
8.276289e-01   2.779562e+06   1.000000e+02
8.430468e-01   2.958876e+06   1.000000e+02
8.587519e-01   3.147867e+06   1.000000e+02
8.747496e-01   3.346930e+06   1.000000e+02
8.910453e-01   3.556465e+06   1.000000e+02
9.076446e-01   3.776883e+06   1.000000e+02
9.245531e-01   4.008593e+06   1.000000e+02
9.417766e-01   4.251996e+06   1.000000e+02
9.593209e-01   4.507497e+06   1.000000e+02
9.771921e-01   4.775500e+06   1.000000e+02
9.953962e-01   5.056409e+06   1.000000e+02
1.013939e+00   5.350628e+06   1.000000e+02
1.032828e+00   5.658575e+06   1.000000e+02
1.052069e+00   5.980674e+06   1.000000e+02
1.071668e+00   6.317350e+06   1.000000e+02
1.091632e+00   6.669028e+06   1.000000e+02
1.111968e+00   7.036133e+06   1.000000e+02
1.132683e+00   7.419087e+06   1.000000e+02
1.153783e+00   7.818310e+06   1.000000e+02
1.175277e+00   8.234216e+06   1.000000e+02
1.197171e+00   8.667219e+06   1.000000e+02
1.219473e+00   9.117722e+06   1.000000e+02
1.242191e+00   9.586126e+06   1.000000e+02
1.265332e+00   1.007283e+07   1.000000e+02
1.288904e+00   1.057836e+07   1.000000e+02
1.312915e+00   1.110334e+07   1.000000e+02
1.337373e+00   1.164844e+07   1.000000e+02
1.362287e+00   1.221436e+07   1.000000e+02
1.387665e+00   1.280185e+07   1.000000e+02
1.413516e+00   1.341171e+07   1.000000e+02
1.439848e+00   1.404479e+07   1.000000e+02
1.466671e+00   1.470199e+07   1.000000e+02
1.493993e+00   1.538426e+07   1.000000e+02
1.521825e+00   1.609254e+07   1.000000e+02
1.550175e+00   1.682679e+07   1.000000e+02
1.579053e+00   1.758644e+07   1.000000e+02
1.608469e+00   1.837064e+07   1.000000e+02
1.638434e+00   1.917835e+07   1.000000e+02
1.668956e+00   2.000824e+07   1.000000e+02
1.700047e+00   2.085872e+07   1.000000e+02
1.731717e+00   2.172791e+07   1.000000e+02
1.763977e+00   2.261367e+07   1.000000e+02
1.796838e+00   2.351517e+07   1.000000e+02
1.830312e+00   2.443352e+07   1.000000e+02
1.864409e+00   2.537021e+07   1.000000e+02
1.899141e+00   2.632698e+07   1.000000e+02
1.934520e+00   2.730588e+07   1.000000e+02
1.970558e+00   2.830926e+07   1.000000e+02
2.007267e+00   2.933979e+07   1.000000e+02
2.044661e+00   3.039953e+07   1.000000e+02
2.082751e+00   3.148860e+07   1.000000e+02
2.121550e+00   3.260672e+07   1.000000e+02
2.161073e+00   3.375350e+07   1.000000e+02
2.201331e+00   3.492844e+07   1.000000e+02
2.242340e+00   3.613092e+07   1.000000e+02
2.284112e+00   3.736019e+07   1.000000e+02
2.326663e+00   3.861535e+07   1.000000e+02
2.370006e+00   3.989538e+07   1.000000e+02
2.414157e+00   4.119909e+07   1.000000e+02
2.459130e+00   4.252515e+07   1.000000e+02
2.504942e+00   4.387204e+07   1.000000e+02
2.551606e+00   4.523844e+07   1.000000e+02
2.599140e+00   4.662384e+07   1.000000e+02
2.647559e+00   4.802790e+07   1.000000e+02
2.696881e+00   4.945028e+07   1.000000e+02
2.747121e+00   5.089067e+07   1.000000e+02
2.798297e+00   5.234875e+07   1.000000e+02
2.850426e+00   5.382421e+07   1.000000e+02
2.903527e+00   5.531676e+07   1.000000e+02
2.957617e+00   5.682614e+07   1.000000e+02
3.012714e+00   5.835208e+07   1.000000e+02
3.068838e+00   5.989413e+07   1.000000e+02
3.126007e+00   6.145136e+07   1.000000e+02
3.184242e+00   6.302276e+07   1.000000e+02
3.243561e+00   6.460723e+07   1.000000e+02
3.303985e+00   6.620364e+07   1.000000e+02
3.365535e+00   6.781082e+07   1.000000e+02
3.428231e+00   6.942752e+07   1.000000e+02
3.492096e+00   7.105246e+07   1.000000e+02
3.557150e+00   7.268433e+07   1.000000e+02
3.623416e+00   7.432194e+07   1.000000e+02
3.690917e+00   7.596413e+07   1.000000e+02
3.759675e+00   7.760973e+07   1.000000e+02
3.829714e+00   7.925753e+07   1.000000e+02
3.901058e+00   8.090630e+07   1.000000e+02
3.973730e+00   8.255481e+07   1.000000e+02
4.047757e+00   8.420180e+07   1.000000e+02
4.123163e+00   8.584597e+07   1.000000e+02
4.199973e+00   8.748600e+07   1.000000e+02
4.278214e+00   8.912056e+07   1.000000e+02
4.357913e+00   9.074831e+07   1.000000e+02
4.439097e+00   9.236790e+07   1.000000e+02
4.521792e+00   9.397794e+07   1.000000e+02
4.606029e+00   9.557709e+07   1.000000e+02
4.691835e+00   9.716397e+07   1.000000e+02
4.779239e+00   9.873720e+07   1.000000e+02
