# Be12 + He3 > Be11 + a   [Be12_He3__Be11_a]   ref=TALYS2
# detailed balance: alpha=0.74559 beta=0 gamma=-202.026  Q=17.4093
# T9                 rate                error
1.000000e-03 1.000000e-35 1.000000e+02
1.018629e-03 1.001754e-35 1.000000e+02
1.037605e-03 1.002968e-35 1.000000e+02
1.056935e-03 1.003658e-35 1.000000e+02
1.076624e-03 1.003842e-35 1.000000e+02
1.096681e-03 1.003539e-35 1.000000e+02
1.117111e-03 1.002770e-35 1.000000e+02
1.137921e-03 1.001554e-35 1.000000e+02
1.159120e-03 9.999116e-36 1.000000e+02
1.180713e-03 9.978646e-36 1.000000e+02
1.202708e-03 9.954343e-36 1.000000e+02
1.225114e-03 9.926426e-36 1.000000e+02
1.247936e-03 9.895116e-36 1.000000e+02
1.271184e-03 9.860632e-36 1.000000e+02
1.294865e-03 9.823198e-36 1.000000e+02
1.318987e-03 9.783035e-36 1.000000e+02
1.343558e-03 9.740364e-36 1.000000e+02
1.368587e-03 9.695405e-36 1.000000e+02
1.394083e-03 9.648377e-36 1.000000e+02
1.420053e-03 9.599494e-36 1.000000e+02
1.446507e-03 9.548971e-36 1.000000e+02
1.473454e-03 9.497018e-36 1.000000e+02
1.500903e-03 9.443842e-36 1.000000e+02
1.528864e-03 9.389647e-36 1.000000e+02
1.557345e-03 9.334631e-36 1.000000e+02
1.586357e-03 9.278991e-36 1.000000e+02
1.615909e-03 9.222919e-36 1.000000e+02
1.646012e-03 9.166601e-36 1.000000e+02
1.676675e-03 9.110221e-36 1.000000e+02
1.707910e-03 9.053957e-36 1.000000e+02
1.739726e-03 8.997985e-36 1.000000e+02
1.772136e-03 8.942473e-36 1.000000e+02
1.805149e-03 8.887588e-36 1.000000e+02
1.838777e-03 8.833492e-36 1.000000e+02
1.873032e-03 8.780341e-36 1.000000e+02
1.907924e-03 8.728292e-36 1.000000e+02
1.943467e-03 8.677492e-36 1.000000e+02
1.979672e-03 8.628090e-36 1.000000e+02
2.016551e-03 8.580229e-36 1.000000e+02
2.054117e-03 8.534050e-36 1.000000e+02
2.092383e-03 8.489691e-36 1.000000e+02
2.131362e-03 8.447288e-36 1.000000e+02
2.171068e-03 8.406975e-36 1.000000e+02
2.211512e-03 8.368884e-36 1.000000e+02
2.252711e-03 8.333146e-36 1.000000e+02
2.294676e-03 8.299891e-36 1.000000e+02
2.337424e-03 8.269249e-36 1.000000e+02
2.380968e-03 8.241349e-36 1.000000e+02
2.425323e-03 8.216323e-36 1.000000e+02
2.470504e-03 8.194301e-36 1.000000e+02
2.516527e-03 8.175416e-36 1.000000e+02
2.563407e-03 8.159802e-36 1.000000e+02
2.611161e-03 8.147597e-36 1.000000e+02
2.659804e-03 8.138942e-36 1.000000e+02
2.709354e-03 8.133981e-36 1.000000e+02
2.759826e-03 8.132863e-36 1.000000e+02
2.811239e-03 8.135742e-36 1.000000e+02
2.863610e-03 8.142778e-36 1.000000e+02
2.916956e-03 8.154138e-36 1.000000e+02
2.971296e-03 8.169997e-36 1.000000e+02
3.026648e-03 8.190520e-36 1.000000e+02
3.083031e-03 8.215450e-36 1.000000e+02
3.140465e-03 8.244074e-36 1.000000e+02
3.198969e-03 8.275653e-36 1.000000e+02
3.258562e-03 8.309438e-36 1.000000e+02
3.319266e-03 8.344672e-36 1.000000e+02
3.381101e-03 8.380585e-36 1.000000e+02
3.444087e-03 8.416393e-36 1.000000e+02
3.508247e-03 8.451300e-36 1.000000e+02
3.573602e-03 8.484496e-36 1.000000e+02
3.640175e-03 8.515159e-36 1.000000e+02
3.707988e-03 8.542459e-36 1.000000e+02
3.777064e-03 8.565558e-36 1.000000e+02
3.847427e-03 8.583614e-36 1.000000e+02
3.919100e-03 8.595789e-36 1.000000e+02
3.992109e-03 8.601248e-36 1.000000e+02
4.066478e-03 8.600009e-36 1.000000e+02
4.142232e-03 8.596729e-36 1.000000e+02
4.219398e-03 8.597657e-36 1.000000e+02
4.298001e-03 8.609046e-36 1.000000e+02
4.378069e-03 8.637213e-36 1.000000e+02
4.459628e-03 8.688635e-36 1.000000e+02
4.542706e-03 8.770096e-36 1.000000e+02
4.627332e-03 8.888892e-36 1.000000e+02
4.713535e-03 9.053095e-36 1.000000e+02
4.801343e-03 9.271889e-36 1.000000e+02
4.890787e-03 9.556012e-36 1.000000e+02
4.981898e-03 9.918319e-36 1.000000e+02
5.074705e-03 1.037325e-35 1.000000e+02
5.169242e-03 1.092899e-35 1.000000e+02
5.265540e-03 1.159136e-35 1.000000e+02
5.363631e-03 1.236737e-35 1.000000e+02
5.463550e-03 1.326504e-35 1.000000e+02
5.565331e-03 1.429316e-35 1.000000e+02
5.669007e-03 1.546094e-35 1.000000e+02
5.774615e-03 1.677765e-35 1.000000e+02
5.882190e-03 1.825214e-35 1.000000e+02
5.991770e-03 1.989223e-35 1.000000e+02
6.103390e-03 2.170709e-35 1.000000e+02
6.217090e-03 2.372120e-35 1.000000e+02
6.332908e-03 2.596892e-35 1.000000e+02
6.450884e-03 2.849167e-35 1.000000e+02
6.571058e-03 3.133962e-35 1.000000e+02
6.693470e-03 3.457371e-35 1.000000e+02
6.818162e-03 3.826836e-35 1.000000e+02
6.945178e-03 4.251478e-35 1.000000e+02
7.074559e-03 4.742497e-35 1.000000e+02
7.206351e-03 5.312905e-35 1.000000e+02
7.340598e-03 5.977897e-35 1.000000e+02
7.477346e-03 6.755971e-35 1.000000e+02
7.616642e-03 7.669761e-35 1.000000e+02
7.758532e-03 8.747065e-35 1.000000e+02
7.903066e-03 1.002215e-34 1.000000e+02
8.050292e-03 1.153745e-34 1.000000e+02
8.200261e-03 1.334629e-34 1.000000e+02
8.353023e-03 1.551654e-34 1.000000e+02
8.508632e-03 1.813415e-34 1.000000e+02
8.667139e-03 2.130846e-34 1.000000e+02
8.828599e-03 2.517929e-34 1.000000e+02
8.993067e-03 2.992651e-34 1.000000e+02
9.160598e-03 3.578369e-34 1.000000e+02
9.331251e-03 4.306037e-34 1.000000e+02
9.505083e-03 5.216694e-34 1.000000e+02
9.682153e-03 6.365014e-34 1.000000e+02
9.862522e-03 7.824401e-34 1.000000e+02
1.004625e-02 9.694168e-34 1.000000e+02
1.023340e-02 1.210468e-33 1.000000e+02
1.042404e-02 1.521943e-33 1.000000e+02
1.061823e-02 1.924964e-33 1.000000e+02
1.081604e-02 2.446827e-33 1.000000e+02
1.101753e-02 3.122613e-33 1.000000e+02
1.122277e-02 3.998261e-33 1.000000e+02
1.143184e-02 5.137582e-33 1.000000e+02
1.164481e-02 6.627551e-33 1.000000e+02
1.186174e-02 8.586699e-33 1.000000e+02
1.208271e-02 1.117760e-32 1.000000e+02
1.230780e-02 1.462242e-32 1.000000e+02
1.253708e-02 1.922367e-32 1.000000e+02
1.277063e-02 2.539750e-32 1.000000e+02
1.300854e-02 3.371898e-32 1.000000e+02
1.325087e-02 4.498713e-32 1.000000e+02
1.349772e-02 6.032154e-32 1.000000e+02
1.374917e-02 8.129718e-32 1.000000e+02
1.400531e-02 1.101402e-31 1.000000e+02
1.426621e-02 1.500133e-31 1.000000e+02
1.453198e-02 2.054308e-31 1.000000e+02
1.480269e-02 2.828713e-31 1.000000e+02
1.507845e-02 3.916840e-31 1.000000e+02
1.535935e-02 5.454337e-31 1.000000e+02
1.564548e-02 7.639093e-31 1.000000e+02
1.593694e-02 1.076143e-30 1.000000e+02
1.623382e-02 1.524973e-30 1.000000e+02
1.653624e-02 2.174036e-30 1.000000e+02
1.684430e-02 3.118436e-30 1.000000e+02
1.715809e-02 4.501178e-30 1.000000e+02
1.747773e-02 6.538653e-30 1.000000e+02
1.780332e-02 9.560412e-30 1.000000e+02
1.813498e-02 1.407162e-29 1.000000e+02
1.847281e-02 2.085064e-29 1.000000e+02
1.881694e-02 3.110281e-29 1.000000e+02
1.916748e-02 4.670682e-29 1.000000e+02
1.952456e-02 7.060846e-29 1.000000e+02
1.988828e-02 1.074544e-28 1.000000e+02
2.025878e-02 1.646209e-28 1.000000e+02
2.063618e-02 2.539304e-28 1.000000e+02
2.102061e-02 3.944876e-28 1.000000e+02
2.141220e-02 6.173915e-28 1.000000e+02
2.181109e-02 9.736816e-28 1.000000e+02
2.221741e-02 1.547826e-27 1.000000e+02
2.263130e-02 2.480829e-27 1.000000e+02
2.305289e-02 4.010149e-27 1.000000e+02
2.348235e-02 6.539336e-27 1.000000e+02
2.391980e-02 1.076060e-26 1.000000e+02
2.436540e-02 1.787264e-26 1.000000e+02
2.481930e-02 2.997166e-26 1.000000e+02
2.528166e-02 5.075842e-26 1.000000e+02
2.575263e-02 8.679085e-26 1.000000e+02
2.623238e-02 1.497411e-25 1.000000e+02
2.672106e-02 2.605182e-25 1.000000e+02
2.721885e-02 4.567661e-25 1.000000e+02
2.772591e-02 8.065609e-25 1.000000e+02
2.824241e-02 1.433497e-24 1.000000e+02
2.876854e-02 2.562722e-24 1.000000e+02
2.930447e-02 4.605534e-24 1.000000e+02
2.985038e-02 8.314978e-24 1.000000e+02
3.040646e-02 1.507433e-23 1.000000e+02
3.097291e-02 2.746671e-23 1.000000e+02
3.154990e-02 5.038379e-23 1.000000e+02
3.213764e-02 9.320045e-23 1.000000e+02
3.273634e-02 1.741469e-22 1.000000e+02
3.334618e-02 3.292389e-22 1.000000e+02
3.396739e-02 6.308582e-22 1.000000e+02
3.460016e-02 1.227171e-21 1.000000e+02
3.524473e-02 2.427494e-21 1.000000e+02
3.590130e-02 4.891237e-21 1.000000e+02
3.657011e-02 1.005574e-20 1.000000e+02
3.725137e-02 2.112864e-20 1.000000e+02
3.794533e-02 4.544838e-20 1.000000e+02
3.865221e-02 1.002495e-19 1.000000e+02
3.937226e-02 2.271384e-19 1.000000e+02
4.010573e-02 5.295031e-19 1.000000e+02
4.085286e-02 1.269206e-18 1.000000e+02
4.161391e-02 3.107065e-18 1.000000e+02
4.238913e-02 7.708378e-18 1.000000e+02
4.317880e-02 1.923137e-17 1.000000e+02
4.398317e-02 4.787753e-17 1.000000e+02
4.480254e-02 1.180233e-16 1.000000e+02
4.563716e-02 2.858632e-16 1.000000e+02
4.648734e-02 6.750610e-16 1.000000e+02
4.735335e-02 1.542277e-15 1.000000e+02
4.823549e-02 3.382641e-15 1.000000e+02
4.913407e-02 7.067467e-15 1.000000e+02
5.004939e-02 1.395810e-14 1.000000e+02
5.098176e-02 2.593601e-14 1.000000e+02
5.193150e-02 4.559882e-14 1.000000e+02
5.289893e-02 7.645292e-14 1.000000e+02
5.388438e-02 1.232087e-13 1.000000e+02
5.488820e-02 1.923586e-13 1.000000e+02
5.591071e-02 2.932393e-13 1.000000e+02
5.695227e-02 4.399356e-13 1.000000e+02
5.801323e-02 6.546803e-13 1.000000e+02
5.909396e-02 9.740008e-13 1.000000e+02
6.019482e-02 1.460129e-12 1.000000e+02
6.131619e-02 2.216045e-12 1.000000e+02
6.245845e-02 3.395701e-12 1.000000e+02
6.362198e-02 5.233310e-12 1.000000e+02
6.480720e-02 8.080773e-12 1.000000e+02
6.601449e-02 1.245351e-11 1.000000e+02
6.724427e-02 1.908210e-11 1.000000e+02
6.849697e-02 2.895937e-11 1.000000e+02
6.977300e-02 4.336243e-11 1.000000e+02
7.107280e-02 6.384700e-11 1.000000e+02
7.239681e-02 9.243420e-11 1.000000e+02
7.374549e-02 1.317495e-10 1.000000e+02
7.511929e-02 1.851184e-10 1.000000e+02
7.651869e-02 2.567413e-10 1.000000e+02
7.794416e-02 3.519233e-10 1.000000e+02
7.939618e-02 4.773829e-10 1.000000e+02
8.087525e-02 6.414692e-10 1.000000e+02
8.238187e-02 8.504618e-10 1.000000e+02
8.391656e-02 1.103794e-09 1.000000e+02
8.547985e-02 1.391275e-09 1.000000e+02
8.707225e-02 1.689537e-09 1.000000e+02
8.869432e-02 1.961054e-09 1.000000e+02
9.034660e-02 2.158435e-09 1.000000e+02
9.202967e-02 2.257000e-09 1.000000e+02
9.374409e-02 2.294894e-09 1.000000e+02
9.549045e-02 2.328896e-09 1.000000e+02
9.726934e-02 2.421093e-09 1.000000e+02
9.908137e-02 2.646458e-09 1.000000e+02
1.009272e-01 3.118813e-09 1.000000e+02
1.028073e-01 3.969808e-09 1.000000e+02
1.047225e-01 5.341914e-09 1.000000e+02
1.066734e-01 7.430598e-09 1.000000e+02
1.086606e-01 1.044726e-08 1.000000e+02
1.106848e-01 1.451993e-08 1.000000e+02
1.127468e-01 1.971974e-08 1.000000e+02
1.148472e-01 2.630085e-08 1.000000e+02
1.169866e-01 3.466865e-08 1.000000e+02
1.191660e-01 4.545378e-08 1.000000e+02
1.213859e-01 5.963343e-08 1.000000e+02
1.236472e-01 7.839894e-08 1.000000e+02
1.259506e-01 1.030832e-07 1.000000e+02
1.282970e-01 1.352842e-07 1.000000e+02
1.306870e-01 1.768527e-07 1.000000e+02
1.331216e-01 2.298456e-07 1.000000e+02
1.356015e-01 2.964341e-07 1.000000e+02
1.381276e-01 3.787045e-07 1.000000e+02
1.407008e-01 4.783864e-07 1.000000e+02
1.433219e-01 5.982505e-07 1.000000e+02
1.459919e-01 7.456042e-07 1.000000e+02
1.487115e-01 9.328346e-07 1.000000e+02
1.514819e-01 1.179739e-06 1.000000e+02
1.543038e-01 1.509284e-06 1.000000e+02
1.571784e-01 1.943575e-06 1.000000e+02
1.601064e-01 2.506270e-06 1.000000e+02
1.630891e-01 3.222713e-06 1.000000e+02
1.661273e-01 4.129179e-06 1.000000e+02
1.692220e-01 5.271983e-06 1.000000e+02
1.723745e-01 6.707684e-06 1.000000e+02
1.755856e-01 8.505098e-06 1.000000e+02
1.788566e-01 1.074767e-05 1.000000e+02
1.821885e-01 1.353652e-05 1.000000e+02
1.855825e-01 1.699846e-05 1.000000e+02
1.890397e-01 2.129382e-05 1.000000e+02
1.925614e-01 2.662400e-05 1.000000e+02
1.961486e-01 3.324316e-05 1.000000e+02
1.998026e-01 4.147385e-05 1.000000e+02
2.035248e-01 5.172284e-05 1.000000e+02
2.073162e-01 6.448028e-05 1.000000e+02
2.111783e-01 8.034377e-05 1.000000e+02
2.151123e-01 1.000466e-04 1.000000e+02
2.191197e-01 1.244864e-04 1.000000e+02
2.232016e-01 1.547587e-04 1.000000e+02
2.273597e-01 1.921966e-04 1.000000e+02
2.315951e-01 2.384177e-04 1.000000e+02
2.359095e-01 2.953774e-04 1.000000e+02
2.403043e-01 3.654319e-04 1.000000e+02
2.447809e-01 4.514090e-04 1.000000e+02
2.493409e-01 5.566894e-04 1.000000e+02
2.539859e-01 6.853113e-04 1.000000e+02
2.587174e-01 8.421819e-04 1.000000e+02
2.635371e-01 1.033236e-03 1.000000e+02
2.684465e-01 1.265613e-03 1.000000e+02
2.734474e-01 1.547899e-03 1.000000e+02
2.785414e-01 1.890417e-03 1.000000e+02
2.837304e-01 2.305568e-03 1.000000e+02
2.890160e-01 2.808254e-03 1.000000e+02
2.944000e-01 3.416373e-03 1.000000e+02
2.998844e-01 4.151425e-03 1.000000e+02
3.054710e-01 5.039121e-03 1.000000e+02
3.111616e-01 6.109686e-03 1.000000e+02
3.169582e-01 7.398765e-03 1.000000e+02
3.228628e-01 8.948400e-03 1.000000e+02
3.288774e-01 1.080805e-02 1.000000e+02
3.350041e-01 1.303569e-02 1.000000e+02
3.412449e-01 1.569915e-02 1.000000e+02
3.476019e-01 1.887742e-02 1.000000e+02
3.540774e-01 2.266247e-02 1.000000e+02
3.606735e-01 2.716402e-02 1.000000e+02
3.673925e-01 3.251345e-02 1.000000e+02
3.742366e-01 3.886650e-02 1.000000e+02
3.812083e-01 4.640791e-02 1.000000e+02
3.883098e-01 5.535718e-02 1.000000e+02
3.955436e-01 6.597543e-02 1.000000e+02
4.029122e-01 7.857353e-02 1.000000e+02
4.104181e-01 9.350906e-02 1.000000e+02
4.180637e-01 1.111810e-01 1.000000e+02
4.258518e-01 1.320434e-01 1.000000e+02
4.337850e-01 1.566112e-01 1.000000e+02
4.418660e-01 1.854637e-01 1.000000e+02
4.500975e-01 2.192479e-01 1.000000e+02
4.584824e-01 2.586981e-01 1.000000e+02
4.670234e-01 3.047148e-01 1.000000e+02
4.757236e-01 3.583650e-01 1.000000e+02
4.845859e-01 4.209004e-01 1.000000e+02
4.936132e-01 4.937923e-01 1.000000e+02
5.028087e-01 5.787748e-01 1.000000e+02
5.121755e-01 6.778388e-01 1.000000e+02
5.217169e-01 7.931982e-01 1.000000e+02
5.314359e-01 9.273772e-01 1.000000e+02
5.413360e-01 1.083257e+00 1.000000e+02
5.514206e-01 1.264119e+00 1.000000e+02
5.616930e-01 1.473691e+00 1.000000e+02
5.721568e-01 1.716200e+00 1.000000e+02
5.828155e-01 1.996428e+00 1.000000e+02
5.936727e-01 2.319768e+00 1.000000e+02
6.047322e-01 2.692288e+00 1.000000e+02
6.159978e-01 3.120891e+00 1.000000e+02
6.274732e-01 3.613468e+00 1.000000e+02
6.391624e-01 4.178961e+00 1.000000e+02
6.510694e-01 4.827477e+00 1.000000e+02
6.631981e-01 5.570443e+00 1.000000e+02
6.755528e-01 6.420759e+00 1.000000e+02
6.881377e-01 7.392984e+00 1.000000e+02
7.009570e-01 8.503537e+00 1.000000e+02
7.140151e-01 9.770871e+00 1.000000e+02
7.273165e-01 1.121557e+01 1.000000e+02
7.408657e-01 1.286065e+01 1.000000e+02
7.546673e-01 1.473186e+01 1.000000e+02
7.687260e-01 1.685791e+01 1.000000e+02
7.830465e-01 1.927086e+01 1.000000e+02
7.976339e-01 2.200638e+01 1.000000e+02
8.124930e-01 2.510417e+01 1.000000e+02
8.276289e-01 2.860844e+01 1.000000e+02
8.430468e-01 3.256840e+01 1.000000e+02
8.587519e-01 3.703860e+01 1.000000e+02
8.747496e-01 4.207956e+01 1.000000e+02
8.910453e-01 4.775828e+01 1.000000e+02
9.076446e-01 5.414886e+01 1.000000e+02
9.245531e-01 6.133288e+01 1.000000e+02
9.417766e-01 6.939984e+01 1.000000e+02
9.593209e-01 7.844809e+01 1.000000e+02
9.771921e-01 8.858551e+01 1.000000e+02
9.953962e-01 9.993027e+01 1.000000e+02
1.013939e+00 1.126117e+02 1.000000e+02
1.032828e+00 1.267717e+02 1.000000e+02
1.052069e+00 1.425660e+02 1.000000e+02
1.071668e+00 1.601644e+02 1.000000e+02
1.091632e+00 1.797523e+02 1.000000e+02
1.111968e+00 2.015318e+02 1.000000e+02
1.132683e+00 2.257226e+02 1.000000e+02
1.153783e+00 2.525638e+02 1.000000e+02
1.175277e+00 2.823147e+02 1.000000e+02
1.197171e+00 3.152567e+02 1.000000e+02
1.219473e+00 3.516944e+02 1.000000e+02
1.242191e+00 3.919575e+02 1.000000e+02
1.265332e+00 4.364028e+02 1.000000e+02
1.288904e+00 4.854259e+02 1.000000e+02
1.312915e+00 5.394645e+02 1.000000e+02
1.337373e+00 5.989974e+02 1.000000e+02
1.362287e+00 6.645489e+02 1.000000e+02
1.387665e+00 7.366931e+02 1.000000e+02
1.413516e+00 8.160594e+02 1.000000e+02
1.439848e+00 9.033375e+02 1.000000e+02
1.466671e+00 9.992848e+02 1.000000e+02
1.493993e+00 1.104732e+03 1.000000e+02
1.521825e+00 1.220578e+03 1.000000e+02
1.550175e+00 1.347656e+03 1.000000e+02
1.579053e+00 1.486762e+03 1.000000e+02
1.608469e+00 1.638683e+03 1.000000e+02
1.638434e+00 1.804192e+03 1.000000e+02
1.668956e+00 1.984028e+03 1.000000e+02
1.700047e+00 2.178879e+03 1.000000e+02
1.731717e+00 2.389358e+03 1.000000e+02
1.763977e+00 2.615997e+03 1.000000e+02
1.796838e+00 2.859581e+03 1.000000e+02
1.830312e+00 3.121380e+03 1.000000e+02
1.864409e+00 3.402860e+03 1.000000e+02
1.899141e+00 3.705685e+03 1.000000e+02
1.934520e+00 4.031750e+03 1.000000e+02
1.970558e+00 4.383222e+03 1.000000e+02
2.007267e+00 4.762575e+03 1.000000e+02
2.044661e+00 5.172336e+03 1.000000e+02
2.082751e+00 5.614591e+03 1.000000e+02
2.121550e+00 6.091416e+03 1.000000e+02
2.161073e+00 6.604945e+03 1.000000e+02
2.201331e+00 7.157364e+03 1.000000e+02
2.242340e+00 7.750898e+03 1.000000e+02
2.284112e+00 8.387803e+03 1.000000e+02
2.326663e+00 9.070343e+03 1.000000e+02
2.370006e+00 9.800780e+03 1.000000e+02
2.414157e+00 1.058135e+04 1.000000e+02
2.459130e+00 1.141425e+04 1.000000e+02
2.504942e+00 1.230159e+04 1.000000e+02
2.551606e+00 1.324560e+04 1.000000e+02
2.599140e+00 1.424898e+04 1.000000e+02
2.647559e+00 1.531465e+04 1.000000e+02
2.696881e+00 1.644565e+04 1.000000e+02
2.747121e+00 1.764511e+04 1.000000e+02
2.798297e+00 1.891633e+04 1.000000e+02
2.850426e+00 2.026270e+04 1.000000e+02
2.903527e+00 2.168777e+04 1.000000e+02
2.957617e+00 2.319525e+04 1.000000e+02
3.012714e+00 2.478899e+04 1.000000e+02
3.068838e+00 2.647285e+04 1.000000e+02
3.126007e+00 2.825048e+04 1.000000e+02
3.184242e+00 3.012552e+04 1.000000e+02
3.243561e+00 3.210163e+04 1.000000e+02
3.303985e+00 3.418251e+04 1.000000e+02
3.365535e+00 3.637186e+04 1.000000e+02
3.428231e+00 3.867338e+04 1.000000e+02
3.492096e+00 4.109076e+04 1.000000e+02
3.557150e+00 4.362770e+04 1.000000e+02
3.623416e+00 4.628816e+04 1.000000e+02
3.690917e+00 4.907622e+04 1.000000e+02
3.759675e+00 5.199601e+04 1.000000e+02
3.829714e+00 5.505171e+04 1.000000e+02
3.901058e+00 5.824755e+04 1.000000e+02
3.973730e+00 6.158779e+04 1.000000e+02
4.047757e+00 6.507677e+04 1.000000e+02
4.123163e+00 6.871912e+04 1.000000e+02
4.199973e+00 7.251973e+04 1.000000e+02
4.278214e+00 7.648363e+04 1.000000e+02
4.357913e+00 8.061604e+04 1.000000e+02
4.439097e+00 8.492231e+04 1.000000e+02
4.521792e+00 8.940800e+04 1.000000e+02
4.606029e+00 9.407885e+04 1.000000e+02
4.691835e+00 9.894081e+04 1.000000e+02
4.779239e+00 1.040001e+05 1.000000e+02
4.868271e+00 1.092630e+05 1.000000e+02
4.958962e+00 1.147363e+05 1.000000e+02
5.051342e+00 1.204270e+05 1.000000e+02
5.145444e+00 1.263426e+05 1.000000e+02
5.241298e+00 1.324912e+05 1.000000e+02
5.338938e+00 1.388813e+05 1.000000e+02
5.438397e+00 1.455221e+05 1.000000e+02
5.539709e+00 1.524231e+05 1.000000e+02
5.642908e+00 1.595945e+05 1.000000e+02
5.748030e+00 1.670469e+05 1.000000e+02
5.855110e+00 1.747919e+05 1.000000e+02
5.964185e+00 1.828414e+05 1.000000e+02
6.075292e+00 1.912083e+05 1.000000e+02
6.188468e+00 1.999045e+05 1.000000e+02
6.303753e+00 2.089415e+05 1.000000e+02
6.421186e+00 2.183314e+05 1.000000e+02
6.540806e+00 2.280865e+05 1.000000e+02
6.662655e+00 2.382197e+05 1.000000e+02
6.786773e+00 2.487445e+05 1.000000e+02
6.913204e+00 2.596746e+05 1.000000e+02
7.041990e+00 2.710244e+05 1.000000e+02
7.173175e+00 2.828074e+05 1.000000e+02
7.306804e+00 2.950341e+05 1.000000e+02
7.442922e+00 3.077150e+05 1.000000e+02
7.581576e+00 3.208602e+05 1.000000e+02
7.722814e+00 3.344793e+05 1.000000e+02
7.866682e+00 3.485819e+05 1.000000e+02
8.013230e+00 3.631769e+05 1.000000e+02
8.162509e+00 3.782720e+05 1.000000e+02
8.314568e+00 3.938721e+05 1.000000e+02
8.469460e+00 4.099805e+05 1.000000e+02
8.627237e+00 4.265991e+05 1.000000e+02
8.787954e+00 4.437285e+05 1.000000e+02
8.951665e+00 4.613679e+05 1.000000e+02
9.118425e+00 4.795146e+05 1.000000e+02
9.288292e+00 4.981644e+05 1.000000e+02
9.461324e+00 5.173110e+05 1.000000e+02
9.637579e+00 5.369464e+05 1.000000e+02
9.817117e+00 5.570602e+05 1.000000e+02
1.000000e+01 5.776400e+05 1.000000e+02
