# O18 + p > N15 + a   [O18_p__N15_a]   ref=Iliadis et al. 2010
# detailed balance: alpha=0.16607 beta=0 gamma=-46.1989  Q=3.9811
# T9                 rate                error
1.000000e-03   1.000000e-35   1.000000e+00
1.018629e-03   1.004882e-35   1.000035e+00
1.037605e-03   1.009355e-35   1.000068e+00
1.056935e-03   1.013428e-35   1.000097e+00
1.076624e-03   1.017110e-35   1.000123e+00
1.096681e-03   1.020409e-35   1.000147e+00
1.117111e-03   1.023337e-35   1.000168e+00
1.137921e-03   1.025903e-35   1.000186e+00
1.159120e-03   1.028120e-35   1.000201e+00
1.180713e-03   1.029999e-35   1.000215e+00
1.202708e-03   1.031552e-35   1.000226e+00
1.225114e-03   1.032792e-35   1.000234e+00
1.247936e-03   1.033732e-35   1.000241e+00
1.271184e-03   1.034385e-35   1.000246e+00
1.294865e-03   1.034764e-35   1.000248e+00
1.318987e-03   1.034885e-35   1.000249e+00
1.343558e-03   1.034760e-35   1.000248e+00
1.368587e-03   1.034403e-35   1.000246e+00
1.394083e-03   1.033830e-35   1.000242e+00
1.420053e-03   1.033055e-35   1.000236e+00
1.446507e-03   1.032092e-35   1.000229e+00
1.473454e-03   1.030956e-35   1.000221e+00
1.500903e-03   1.029661e-35   1.000212e+00
1.528864e-03   1.028222e-35   1.000202e+00
1.557345e-03   1.026654e-35   1.000191e+00
1.586357e-03   1.024972e-35   1.000179e+00
1.615909e-03   1.023189e-35   1.000166e+00
1.646012e-03   1.021321e-35   1.000153e+00
1.676675e-03   1.019382e-35   1.000139e+00
1.707910e-03   1.017385e-35   1.000125e+00
1.739726e-03   1.015346e-35   1.000111e+00
1.772136e-03   1.013279e-35   1.000096e+00
1.805149e-03   1.011197e-35   1.000081e+00
1.838777e-03   1.009114e-35   1.000066e+00
1.873032e-03   1.007045e-35   1.000051e+00
1.907924e-03   1.005002e-35   1.000036e+00
1.943467e-03   1.002999e-35   1.000022e+00
1.979672e-03   1.001051e-35   1.000008e+00
2.016551e-03   9.991690e-36   9.999940e-01
2.054117e-03   9.973679e-36   9.999809e-01
2.092383e-03   9.956603e-36   9.999684e-01
2.131362e-03   9.940594e-36   9.999567e-01
2.171068e-03   9.925783e-36   9.999459e-01
2.211512e-03   9.912299e-36   9.999360e-01
2.252711e-03   9.900272e-36   9.999272e-01
2.294676e-03   9.889833e-36   9.999196e-01
2.337424e-03   9.881111e-36   9.999132e-01
2.380968e-03   9.874236e-36   9.999081e-01
2.425323e-03   9.869340e-36   9.999045e-01
2.470504e-03   9.866554e-36   9.999025e-01
2.516527e-03   9.866012e-36   9.999021e-01
2.563407e-03   9.867847e-36   9.999034e-01
2.611161e-03   9.872197e-36   9.999066e-01
2.659804e-03   9.879198e-36   9.999118e-01
2.709354e-03   9.888993e-36   9.999189e-01
2.759826e-03   9.901724e-36   9.999283e-01
2.811239e-03   9.917538e-36   9.999399e-01
2.863610e-03   9.936586e-36   9.999538e-01
2.916956e-03   9.959022e-36   9.999702e-01
2.971296e-03   9.985006e-36   9.999891e-01
3.026648e-03   1.001467e-35   1.000011e+00
3.083031e-03   1.004742e-35   1.000034e+00
3.140465e-03   1.008185e-35   1.000059e+00
3.198969e-03   1.011652e-35   1.000084e+00
3.258562e-03   1.014996e-35   1.000108e+00
3.319266e-03   1.018067e-35   1.000130e+00
3.381101e-03   1.020716e-35   1.000149e+00
3.444087e-03   1.022791e-35   1.000164e+00
3.508247e-03   1.024139e-35   1.000173e+00
3.573602e-03   1.024610e-35   1.000177e+00
3.640175e-03   1.024053e-35   1.000173e+00
3.707988e-03   1.022323e-35   1.000160e+00
3.777064e-03   1.019277e-35   1.000139e+00
3.847427e-03   1.014780e-35   1.000107e+00
3.919100e-03   1.008705e-35   1.000063e+00
3.992109e-03   1.000936e-35   1.000007e+00
4.066478e-03   9.914836e-36   9.999379e-01
4.142232e-03   9.809964e-36   9.998607e-01
4.219398e-03   9.703156e-36   9.997812e-01
4.298001e-03   9.602483e-36   9.997055e-01
4.378069e-03   9.515687e-36   9.996396e-01
4.459628e-03   9.450265e-36   9.995895e-01
4.542706e-03   9.413611e-36   9.995613e-01
4.627332e-03   9.413217e-36   9.995610e-01
4.713535e-03   9.456939e-36   9.995946e-01
4.801343e-03   9.553336e-36   9.996683e-01
4.890787e-03   9.712087e-36   9.997879e-01
4.981898e-03   9.944531e-36   9.999596e-01
5.074705e-03   1.025982e-35   1.000186e+00
5.169242e-03   1.063529e-35   1.000447e+00
5.265540e-03   1.102962e-35   1.000712e+00
5.363631e-03   1.139515e-35   1.000949e+00
5.463550e-03   1.167812e-35   1.001127e+00
5.565331e-03   1.182130e-35   1.001216e+00
5.669007e-03   1.176908e-35   1.001183e+00
5.774615e-03   1.147494e-35   1.000999e+00
5.882190e-03   1.091026e-35   1.000633e+00
5.991770e-03   1.007260e-35   1.000053e+00
6.103390e-03   9.020888e-36   9.992521e-01
6.217090e-03   7.959871e-36   9.983446e-01
6.332908e-03   7.064768e-36   9.974802e-01
6.450884e-03   6.438901e-36   9.968085e-01
6.571058e-03   6.152255e-36   9.964790e-01
6.693470e-03   6.291474e-36   9.966409e-01
6.818162e-03   7.029959e-36   9.974444e-01
6.945178e-03   8.762382e-36   9.990411e-01
7.074559e-03   1.239207e-35   1.001559e+00
7.206351e-03   1.902190e-35   1.004680e+00
7.340598e-03   2.882216e-35   1.007716e+00
7.477346e-03   3.914544e-35   1.009959e+00
7.616642e-03   4.327497e-35   1.010694e+00
7.758532e-03   3.536002e-35   1.009213e+00
7.903066e-03   1.939222e-35   1.004821e+00
8.050292e-03   6.504461e-36   9.968819e-01
8.200261e-03   1.484542e-36   9.862450e-01
8.353023e-03   3.477627e-37   9.759060e-01
8.508632e-03   1.293930e-37   9.689252e-01
8.667139e-03   1.183327e-37   9.682968e-01
8.828599e-03   4.116166e-37   9.771013e-01
8.993067e-03   8.427600e-36   9.987586e-01
9.160598e-03   1.311341e-33   1.036048e+00
9.331251e-03   8.808023e-31   1.086251e+00
9.505083e-03   1.149507e-27   1.144493e+00
9.682153e-03   1.311985e-24   1.204847e+00
9.862522e-03   5.894445e-22   1.260050e+00
1.004625e-02   4.708927e-20   1.301651e+00
1.023340e-02   4.659397e-19   1.324710e+00
1.042404e-02   9.224445e-19   1.332803e+00
1.061823e-02   6.501292e-19   1.331166e+00
1.081604e-02   2.902379e-19   1.325323e+00
1.101753e-02   1.460207e-19   1.320798e+00
1.122277e-02   1.254652e-19   1.321519e+00
1.143184e-02   1.698620e-19   1.326686e+00
1.164481e-02   3.038082e-19   1.334612e+00
1.186174e-02   6.018652e-19   1.343596e+00
1.208271e-02   1.109480e-18   1.351920e+00
1.230780e-02   1.751327e-18   1.358897e+00
1.253708e-02   2.474515e-18   1.365330e+00
1.277063e-02   3.302611e-18   1.372155e+00
1.300854e-02   4.393773e-18   1.380325e+00
1.325087e-02   6.069669e-18   1.390583e+00
1.349772e-02   8.655920e-18   1.402850e+00
1.374917e-02   1.253730e-17   1.416857e+00
1.400531e-02   1.814509e-17   1.432331e+00
1.426621e-02   2.591959e-17   1.449030e+00
1.453198e-02   3.664027e-17   1.466867e+00
1.480269e-02   5.157350e-17   1.485788e+00
1.507845e-02   7.272646e-17   1.505740e+00
1.535935e-02   1.030583e-16   1.526657e+00
1.564548e-02   1.464044e-16   1.548461e+00
1.593694e-02   2.078828e-16   1.571067e+00
1.623382e-02   2.942645e-16   1.594391e+00
1.653624e-02   4.152663e-16   1.618379e+00
1.684430e-02   5.849750e-16   1.642993e+00
1.715809e-02   8.236166e-16   1.668193e+00
1.747773e-02   1.160500e-15   1.693934e+00
1.780332e-02   1.638525e-15   1.720170e+00
1.813498e-02   2.321089e-15   1.746847e+00
1.847281e-02   3.299500e-15   1.773869e+00
1.881694e-02   4.701351e-15   1.801075e+00
1.916748e-02   6.706223e-15   1.828291e+00
1.952456e-02   9.564814e-15   1.855334e+00
1.988828e-02   1.362325e-14   1.882008e+00
2.025878e-02   1.935482e-14   1.908122e+00
2.063618e-02   2.742052e-14   1.933601e+00
2.102061e-02   3.874705e-14   1.958444e+00
2.141220e-02   5.462344e-14   1.982652e+00
2.181109e-02   7.684187e-14   2.006231e+00
2.221741e-02   1.078937e-13   2.029187e+00
2.263130e-02   1.512429e-13   2.051529e+00
2.305289e-02   2.117072e-13   2.073268e+00
2.348235e-02   2.959911e-13   2.094418e+00
2.391980e-02   4.134331e-13   2.114993e+00
2.436540e-02   5.770542e-13   2.135010e+00
2.481930e-02   8.050330e-13   2.154488e+00
2.528166e-02   1.122767e-12   2.173445e+00
2.575263e-02   1.565402e-12   2.191859e+00
2.623238e-02   2.181314e-12   2.209674e+00
2.672106e-02   3.037111e-12   2.226837e+00
2.721885e-02   4.224228e-12   2.243290e+00
2.772591e-02   5.867759e-12   2.258977e+00
2.824241e-02   8.138219e-12   2.273840e+00
2.876854e-02   1.126711e-11   2.287822e+00
2.930447e-02   1.556741e-11   2.300866e+00
2.985038e-02   2.146023e-11   2.312915e+00
3.040646e-02   2.951000e-11   2.323916e+00
3.097291e-02   4.047677e-11   2.333859e+00
3.154990e-02   5.538254e-11   2.342758e+00
3.213764e-02   7.559617e-11   2.350627e+00
3.273634e-02   1.029476e-10   2.357485e+00
3.334618e-02   1.398786e-10   2.363350e+00
3.396739e-02   1.896422e-10   2.368244e+00
3.460016e-02   2.565642e-10   2.372187e+00
3.524473e-02   3.463892e-10   2.375203e+00
3.590130e-02   4.667339e-10   2.377317e+00
3.657011e-02   6.276829e-10   2.378555e+00
3.725137e-02   8.425714e-10   2.378943e+00
3.794533e-02   1.129011e-09   2.378509e+00
3.865221e-02   1.510232e-09   2.377282e+00
3.937226e-02   2.016848e-09   2.375291e+00
4.010573e-02   2.689156e-09   2.372566e+00
4.085286e-02   3.580681e-09   2.368886e+00
4.161391e-02   4.764128e-09   2.363379e+00
4.238913e-02   6.338079e-09   2.355079e+00
4.317880e-02   8.436780e-09   2.343039e+00
4.398317e-02   1.124421e-08   2.326350e+00
4.480254e-02   1.501423e-08   2.304154e+00
4.563716e-02   2.009958e-08   2.275664e+00
4.648734e-02   2.699413e-08   2.240187e+00
4.735335e-02   3.639473e-08   2.197149e+00
4.823549e-02   4.929272e-08   2.146116e+00
4.913407e-02   6.711052e-08   2.086818e+00
5.004939e-02   9.190738e-08   2.019171e+00
5.098176e-02   1.266805e-07   1.943849e+00
5.193150e-02   1.757831e-07   1.863460e+00
5.289893e-02   2.456020e-07   1.780750e+00
5.388438e-02   3.455832e-07   1.698123e+00
5.488820e-02   4.897999e-07   1.617617e+00
5.591071e-02   6.993730e-07   1.540920e+00
5.695227e-02   1.006242e-06   1.469400e+00
5.801323e-02   1.459076e-06   1.404148e+00
5.909396e-02   2.132627e-06   1.346034e+00
6.019482e-02   3.142617e-06   1.295766e+00
6.131619e-02   4.667134e-06   1.253469e+00
6.245845e-02   6.973845e-06   1.218168e+00
6.362198e-02   1.046540e-05   1.188883e+00
6.480720e-02   1.574343e-05   1.164769e+00
6.601449e-02   2.369744e-05   1.145093e+00
6.724427e-02   3.562545e-05   1.129208e+00
6.849697e-02   5.339182e-05   1.116528e+00
6.977300e-02   7.962380e-05   1.106522e+00
7.107280e-02   1.179629e-04   1.098707e+00
7.239681e-02   1.735503e-04   1.092728e+00
7.374549e-02   2.536066e-04   1.088289e+00
7.511929e-02   3.681546e-04   1.085107e+00
7.651869e-02   5.310233e-04   1.082905e+00
7.794416e-02   7.611838e-04   1.081413e+00
7.939618e-02   1.084519e-03   1.080364e+00
8.087525e-02   1.536144e-03   1.079502e+00
8.238187e-02   2.163189e-03   1.078712e+00
8.391656e-02   3.028321e-03   1.077996e+00
8.547985e-02   4.214346e-03   1.077357e+00
8.707225e-02   5.829820e-03   1.076796e+00
8.869432e-02   8.015905e-03   1.076318e+00
9.034660e-02   1.095465e-02   1.075925e+00
9.202967e-02   1.487958e-02   1.075617e+00
9.374409e-02   2.008970e-02   1.075383e+00
9.549045e-02   2.696480e-02   1.075213e+00
9.726934e-02   3.598426e-02   1.075097e+00
9.908137e-02   4.774966e-02   1.075024e+00
1.009272e-01   6.301158e-02   1.074983e+00
1.028073e-01   8.269966e-02   1.074966e+00
1.047225e-01   1.079572e-01   1.074967e+00
1.066734e-01   1.401830e-01   1.074978e+00
1.086606e-01   1.810780e-01   1.074992e+00
1.106848e-01   2.326987e-01   1.075003e+00
1.127468e-01   2.975211e-01   1.075008e+00
1.148472e-01   3.785169e-01   1.075008e+00
1.169866e-01   4.792312e-01   1.075005e+00
1.191660e-01   6.038737e-01   1.075001e+00
1.213859e-01   7.574190e-01   1.074999e+00
1.236472e-01   9.456861e-01   1.074998e+00
1.259506e-01   1.175436e+00   1.074998e+00
1.282970e-01   1.454493e+00   1.074999e+00
1.306870e-01   1.791867e+00   1.075000e+00
1.331216e-01   2.197925e+00   1.075000e+00
1.356015e-01   2.684634e+00   1.075000e+00
1.381276e-01   3.265703e+00   1.075000e+00
1.407008e-01   3.956781e+00   1.075000e+00
1.433219e-01   4.775429e+00   1.075000e+00
1.459919e-01   5.740878e+00   1.075000e+00
1.487115e-01   6.874259e+00   1.075000e+00
1.514819e-01   8.198674e+00   1.075000e+00
1.543038e-01   9.740328e+00   1.075000e+00
1.571784e-01   1.152940e+01   1.075000e+00
1.601064e-01   1.359991e+01   1.075000e+00
1.630891e-01   1.598958e+01   1.075000e+00
1.661273e-01   1.873796e+01   1.075001e+00
1.692220e-01   2.188724e+01   1.075002e+00
1.723745e-01   2.548247e+01   1.075002e+00
1.755856e-01   2.957149e+01   1.075001e+00
1.788566e-01   3.420461e+01   1.075001e+00
1.821885e-01   3.943456e+01   1.074999e+00
1.855825e-01   4.531883e+01   1.074997e+00
1.890397e-01   5.192022e+01   1.074995e+00
1.925614e-01   5.930583e+01   1.074994e+00
1.961486e-01   6.754737e+01   1.074995e+00
1.998026e-01   7.672143e+01   1.075000e+00
2.035248e-01   8.690902e+01   1.075008e+00
2.073162e-01   9.819181e+01   1.075022e+00
2.111783e-01   1.106533e+02   1.075043e+00
2.151123e-01   1.243795e+02   1.075075e+00
2.191197e-01   1.394585e+02   1.075120e+00
2.232016e-01   1.559801e+02   1.075179e+00
2.273597e-01   1.740356e+02   1.075256e+00
2.315951e-01   1.937171e+02   1.075351e+00
2.359095e-01   2.151174e+02   1.075468e+00
2.403043e-01   2.383290e+02   1.075608e+00
2.447809e-01   2.634443e+02   1.075775e+00
2.493409e-01   2.905545e+02   1.075970e+00
2.539859e-01   3.197510e+02   1.076197e+00
2.587174e-01   3.511347e+02   1.076473e+00
2.635371e-01   3.848135e+02   1.076818e+00
2.684465e-01   4.208998e+02   1.077255e+00
2.734474e-01   4.595112e+02   1.077803e+00
2.785414e-01   5.007715e+02   1.078484e+00
2.837304e-01   5.448116e+02   1.079320e+00
2.890160e-01   5.917708e+02   1.080331e+00
2.944000e-01   6.417978e+02   1.081540e+00
2.998844e-01   6.950526e+02   1.082968e+00
3.054710e-01   7.517008e+02   1.084635e+00
3.111616e-01   8.118888e+02   1.086561e+00
3.169582e-01   8.757579e+02   1.088760e+00
3.228628e-01   9.434514e+02   1.091251e+00
3.288774e-01   1.015114e+03   1.094049e+00
3.350041e-01   1.090891e+03   1.097174e+00
3.412449e-01   1.170931e+03   1.100644e+00
3.476019e-01   1.255384e+03   1.104476e+00
3.540774e-01   1.344417e+03   1.108693e+00
3.606735e-01   1.438438e+03   1.113355e+00
3.673925e-01   1.538107e+03   1.118549e+00
3.742366e-01   1.644215e+03   1.124366e+00
3.812083e-01   1.757708e+03   1.130898e+00
3.883098e-01   1.879707e+03   1.138243e+00
3.955436e-01   2.011536e+03   1.146499e+00
4.029122e-01   2.154757e+03   1.155771e+00
4.104181e-01   2.311081e+03   1.166092e+00
4.180637e-01   2.482329e+03   1.177404e+00
4.258518e-01   2.670601e+03   1.189637e+00
4.337850e-01   2.878346e+03   1.202725e+00
4.418660e-01   3.108420e+03   1.216596e+00
4.500975e-01   3.364166e+03   1.231175e+00
4.584824e-01   3.649505e+03   1.246366e+00
4.670234e-01   3.969028e+03   1.261992e+00
4.757236e-01   4.328147e+03   1.277845e+00
4.845859e-01   4.733275e+03   1.293709e+00
4.936132e-01   5.192030e+03   1.309356e+00
5.028087e-01   5.713500e+03   1.324548e+00
5.121755e-01   6.308198e+03   1.339080e+00
5.217169e-01   6.987998e+03   1.352808e+00
5.314359e-01   7.766884e+03   1.365592e+00
5.413360e-01   8.661429e+03   1.377291e+00
5.514206e-01   9.691326e+03   1.387760e+00
5.616930e-01   1.088003e+04   1.396857e+00
5.721568e-01   1.225553e+04   1.404437e+00
5.828155e-01   1.385134e+04   1.410361e+00
5.936727e-01   1.570765e+04   1.414491e+00
6.047322e-01   1.787267e+04   1.416700e+00
6.159978e-01   2.039987e+04   1.417040e+00
6.274732e-01   2.334566e+04   1.415780e+00
6.391624e-01   2.677313e+04   1.413205e+00
6.510694e-01   3.075249e+04   1.409603e+00
6.631981e-01   3.536090e+04   1.405263e+00
6.755528e-01   4.068197e+04   1.400469e+00
6.881377e-01   4.680476e+04   1.395505e+00
7.009570e-01   5.382216e+04   1.390650e+00
7.140151e-01   6.183453e+04   1.386086e+00
7.273165e-01   7.096586e+04   1.381690e+00
7.408657e-01   8.135663e+04   1.377284e+00
7.546673e-01   9.316185e+04   1.372692e+00
7.687260e-01   1.065520e+05   1.367740e+00
7.830465e-01   1.217139e+05   1.362255e+00
7.976339e-01   1.388513e+05   1.356069e+00
8.124930e-01   1.581862e+05   1.349077e+00
8.276289e-01   1.799611e+05   1.341553e+00
8.430468e-01   2.044392e+05   1.333917e+00
8.587519e-01   2.319046e+05   1.326580e+00
8.747496e-01   2.626630e+05   1.319944e+00
8.910453e-01   2.970413e+05   1.314405e+00
9.076446e-01   3.353878e+05   1.310339e+00
9.245531e-01   3.780666e+05   1.307757e+00
9.417766e-01   4.254528e+05   1.306264e+00
9.593209e-01   4.779334e+05   1.305451e+00
9.771921e-01   5.359046e+05   1.304911e+00
9.953962e-01   5.997669e+05   1.304237e+00
1.013939e+00   6.699257e+05   1.303060e+00
1.032828e+00   7.468293e+05   1.301325e+00
1.052069e+00   8.309635e+05   1.299137e+00
1.071668e+00   9.228349e+05   1.296602e+00
1.091632e+00   1.022970e+06   1.293827e+00
1.111968e+00   1.131917e+06   1.290916e+00
1.132683e+00   1.250242e+06   1.287975e+00
1.153783e+00   1.378534e+06   1.285106e+00
1.175277e+00   1.517398e+06   1.282413e+00
1.197171e+00   1.667464e+06   1.279997e+00
1.219473e+00   1.829379e+06   1.277960e+00
1.242191e+00   2.003809e+06   1.276402e+00
1.265332e+00   2.191438e+06   1.275415e+00
1.288904e+00   2.392897e+06   1.274982e+00
1.312915e+00   2.608759e+06   1.275015e+00
1.337373e+00   2.839570e+06   1.275425e+00
1.362287e+00   3.085836e+06   1.276124e+00
1.387665e+00   3.348020e+06   1.277023e+00
1.413516e+00   3.626532e+06   1.278034e+00
1.439848e+00   3.921719e+06   1.279069e+00
1.466671e+00   4.233856e+06   1.280038e+00
1.493993e+00   4.563138e+06   1.280852e+00
1.521825e+00   4.909688e+06   1.281436e+00
1.550175e+00   5.273678e+06   1.281828e+00
1.579053e+00   5.655292e+06   1.282116e+00
1.608469e+00   6.054672e+06   1.282391e+00
1.638434e+00   6.471914e+06   1.282743e+00
1.668956e+00   6.907069e+06   1.283263e+00
1.700047e+00   7.360140e+06   1.284041e+00
1.731717e+00   7.831086e+06   1.285168e+00
1.763977e+00   8.319821e+06   1.286733e+00
1.796838e+00   8.826255e+06   1.288734e+00
1.830312e+00   9.350313e+06   1.291060e+00
1.864409e+00   9.891904e+06   1.293592e+00
1.899141e+00   1.045092e+07   1.296213e+00
1.934520e+00   1.102725e+07   1.298801e+00
1.970558e+00   1.162076e+07   1.301236e+00
2.007267e+00   1.223132e+07   1.303397e+00
2.044661e+00   1.285856e+07   1.305210e+00
2.082751e+00   1.350152e+07   1.306707e+00
2.121550e+00   1.415898e+07   1.307937e+00
2.161073e+00   1.482958e+07   1.308949e+00
2.201331e+00   1.551176e+07   1.309792e+00
2.242340e+00   1.620381e+07   1.310516e+00
2.284112e+00   1.690384e+07   1.311169e+00
2.326663e+00   1.760976e+07   1.311802e+00
2.370006e+00   1.831935e+07   1.312463e+00
2.414157e+00   1.903019e+07   1.313204e+00
2.459130e+00   1.973971e+07   1.314074e+00
2.504942e+00   2.044520e+07   1.315122e+00
2.551606e+00   2.114451e+07   1.316377e+00
2.599140e+00   2.183757e+07   1.317801e+00
2.647559e+00   2.252496e+07   1.319342e+00
2.696881e+00   2.320755e+07   1.320952e+00
2.747121e+00   2.388651e+07   1.322580e+00
2.798297e+00   2.456330e+07   1.324174e+00
2.850426e+00   2.523969e+07   1.325683e+00
2.903527e+00   2.591774e+07   1.327058e+00
2.957617e+00   2.659980e+07   1.328245e+00
3.012714e+00   2.728854e+07   1.329194e+00
3.068838e+00   2.798606e+07   1.329898e+00
3.126007e+00   2.869281e+07   1.330442e+00
3.184242e+00   2.940907e+07   1.330923e+00
3.243561e+00   3.013514e+07   1.331437e+00
3.303985e+00   3.087136e+07   1.332081e+00
3.365535e+00   3.161813e+07   1.332953e+00
3.428231e+00   3.237585e+07   1.334149e+00
3.492096e+00   3.314498e+07   1.335768e+00
3.557150e+00   3.392516e+07   1.337879e+00
3.623416e+00   3.471081e+07   1.340388e+00
3.690917e+00   3.549397e+07   1.343137e+00
3.759675e+00   3.626599e+07   1.345969e+00
3.829714e+00   3.701757e+07   1.348725e+00
3.901058e+00   3.773877e+07   1.351245e+00
3.973730e+00   3.841910e+07   1.353369e+00
4.047757e+00   3.904845e+07   1.354944e+00
4.123163e+00   3.962717e+07   1.355949e+00
4.199973e+00   4.016351e+07   1.356452e+00
4.278214e+00   4.066660e+07   1.356526e+00
4.357913e+00   4.114621e+07   1.356242e+00
4.439097e+00   4.161272e+07   1.355672e+00
4.521792e+00   4.207699e+07   1.354888e+00
4.606029e+00   4.255042e+07   1.353963e+00
4.691835e+00   4.304493e+07   1.352967e+00
4.779239e+00   4.357300e+07   1.351974e+00
4.868271e+00   4.414772e+07   1.351055e+00
