# Li7 + t > Be9 + n   [Li7_t__Be9_n]   ref=Coc et al. 2012
# detailed balance: alpha=3.5516 beta=0 gamma=-121.14  Q=10.439
# T9                 rate                error
1.000000e-03   1.640000e-36   2.233300e+00
1.018629e-03   2.763841e-36   2.234690e+00
1.037605e-03   4.695698e-36   2.235971e+00
1.056935e-03   8.040223e-36   2.237147e+00
1.076624e-03   1.387010e-35   2.238220e+00
1.096681e-03   2.409890e-35   2.239193e+00
1.117111e-03   4.215837e-35   2.240069e+00
1.137921e-03   7.423389e-35   2.240852e+00
1.159120e-03   1.315271e-34   2.241545e+00
1.180713e-03   2.344150e-34   2.242150e+00
1.202708e-03   4.201222e-34   2.242671e+00
1.225114e-03   7.569178e-34   2.243110e+00
1.247936e-03   1.370463e-33   2.243472e+00
1.271184e-03   2.492839e-33   2.243758e+00
1.294865e-03   4.553992e-33   2.243973e+00
1.318987e-03   8.352648e-33   2.244119e+00
1.343558e-03   1.537633e-32   2.244200e+00
1.368587e-03   2.840144e-32   2.244218e+00
1.394083e-03   5.261993e-32   2.244178e+00
1.420053e-03   9.775637e-32   2.244081e+00
1.446507e-03   1.820486e-31   2.243932e+00
1.473454e-03   3.397349e-31   2.243733e+00
1.500903e-03   6.351351e-31   2.243487e+00
1.528864e-03   1.189126e-30   2.243199e+00
1.557345e-03   2.228889e-30   2.242870e+00
1.586357e-03   4.181290e-30   2.242505e+00
1.615909e-03   7.847952e-30   2.242106e+00
1.646012e-03   1.473294e-29   2.241676e+00
1.676675e-03   2.765489e-29   2.241219e+00
1.707910e-03   5.188802e-29   2.240739e+00
1.739726e-03   9.728311e-29   2.240237e+00
1.772136e-03   1.821989e-28   2.239717e+00
1.805149e-03   3.407648e-28   2.239184e+00
1.838777e-03   6.362492e-28   2.238638e+00
1.873032e-03   1.185567e-27   2.238085e+00
1.907924e-03   2.204011e-27   2.237527e+00
1.943467e-03   4.086516e-27   2.236966e+00
1.979672e-03   7.554526e-27   2.236408e+00
2.016551e-03   1.391998e-26   2.235853e+00
2.054117e-03   2.555699e-26   2.235307e+00
2.092383e-03   4.673948e-26   2.234771e+00
2.131362e-03   8.511841e-26   2.234249e+00
2.171068e-03   1.543091e-25   2.233744e+00
2.211512e-03   2.783879e-25   2.233260e+00
2.252711e-03   4.996470e-25   2.232799e+00
2.294676e-03   8.918517e-25   2.232364e+00
2.337424e-03   1.582710e-24   2.231959e+00
2.380968e-03   2.791594e-24   2.231588e+00
2.425323e-03   4.892241e-24   2.231252e+00
2.470504e-03   8.515912e-24   2.230955e+00
2.516527e-03   1.471922e-23   2.230700e+00
2.563407e-03   2.525408e-23   2.230491e+00
2.611161e-03   4.299662e-23   2.230331e+00
2.659804e-03   7.261990e-23   2.230222e+00
2.709354e-03   1.216349e-22   2.230168e+00
2.759826e-03   2.019785e-22   2.230172e+00
2.811239e-03   3.323985e-22   2.230237e+00
2.863610e-03   5.419791e-22   2.230367e+00
2.916956e-03   8.752627e-22   2.230564e+00
2.971296e-03   1.399554e-21   2.230832e+00
3.026648e-03   2.215175e-21   2.231173e+00
3.083031e-03   3.471399e-21   2.231582e+00
3.140465e-03   5.390659e-21   2.232044e+00
3.198969e-03   8.302230e-21   2.232546e+00
3.258562e-03   1.269223e-20   2.233071e+00
3.319266e-03   1.927731e-20   2.233604e+00
3.381101e-03   2.911352e-20   2.234132e+00
3.444087e-03   4.375802e-20   2.234638e+00
3.508247e-03   6.551037e-20   2.235108e+00
3.573602e-03   9.777475e-20   2.235527e+00
3.640175e-03   1.456070e-19   2.235880e+00
3.707988e-03   2.165468e-19   2.236152e+00
3.777064e-03   3.218916e-19   2.236328e+00
3.847427e-03   4.786642e-19   2.236393e+00
3.919100e-03   7.126730e-19   2.236332e+00
3.992109e-03   1.063316e-18   2.236131e+00
4.066478e-03   1.590933e-18   2.235778e+00
4.142232e-03   2.386568e-18   2.235291e+00
4.219398e-03   3.587646e-18   2.234697e+00
4.298001e-03   5.401827e-18   2.234022e+00
4.378069e-03   8.142327e-18   2.233291e+00
4.459628e-03   1.228046e-17   2.232533e+00
4.542706e-03   1.852338e-17   2.231773e+00
4.627332e-03   2.792845e-17   2.231036e+00
4.713535e-03   4.207031e-17   2.230350e+00
4.801343e-03   6.328321e-17   2.229741e+00
4.890787e-03   9.500938e-17   2.229234e+00
4.981898e-03   1.422955e-16   2.228857e+00
5.074705e-03   2.125035e-16   2.228631e+00
5.169242e-03   3.164166e-16   2.228552e+00
5.265540e-03   4.697978e-16   2.228606e+00
5.363631e-03   6.956040e-16   2.228775e+00
5.463550e-03   1.027196e-15   2.229046e+00
5.565331e-03   1.512953e-15   2.229401e+00
5.669007e-03   2.222897e-15   2.229826e+00
5.774615e-03   3.258185e-15   2.230304e+00
5.882190e-03   4.764698e-15   2.230821e+00
5.991770e-03   6.952468e-15   2.231359e+00
6.103390e-03   1.012326e-14   2.231905e+00
6.217090e-03   1.470889e-14   2.232441e+00
6.332908e-03   2.132583e-14   2.232953e+00
6.450884e-03   3.085234e-14   2.233423e+00
6.571058e-03   4.453643e-14   2.233836e+00
6.693470e-03   6.414706e-14   2.234176e+00
6.818162e-03   9.218526e-14   2.234427e+00
6.945178e-03   1.321778e-13   2.234574e+00
7.074559e-03   1.890850e-13   2.234600e+00
7.206351e-03   2.698617e-13   2.234520e+00
7.340598e-03   3.842308e-13   2.234366e+00
7.477346e-03   5.457462e-13   2.234174e+00
7.616642e-03   7.732462e-13   2.233978e+00
7.758532e-03   1.092834e-12   2.233813e+00
7.903066e-03   1.540567e-12   2.233713e+00
8.050292e-03   2.166101e-12   2.233713e+00
8.200261e-03   3.037716e-12   2.233819e+00
8.353023e-03   4.249257e-12   2.233999e+00
8.508632e-03   5.929327e-12   2.234213e+00
8.667139e-03   8.253791e-12   2.234426e+00
8.828599e-03   1.146268e-11   2.234600e+00
8.993067e-03   1.588301e-11   2.234698e+00
9.160598e-03   2.195930e-11   2.234686e+00
9.331251e-03   3.029371e-11   2.234547e+00
9.505083e-03   4.170027e-11   2.234270e+00
9.682153e-03   5.727720e-11   2.233843e+00
9.862522e-03   7.850284e-11   2.233254e+00
1.004625e-02   1.073628e-10   2.232493e+00
1.023340e-02   1.465193e-10   2.231593e+00
1.042404e-02   1.995358e-10   2.230673e+00
1.061823e-02   2.711727e-10   2.229865e+00
1.081604e-02   3.677763e-10   2.229297e+00
1.101753e-02   4.977922e-10   2.229101e+00
1.122277e-02   6.724387e-10   2.229341e+00
1.143184e-02   9.065907e-10   2.229885e+00
1.164481e-02   1.219937e-09   2.230560e+00
1.186174e-02   1.638494e-09   2.231197e+00
1.208271e-02   2.196582e-09   2.231626e+00
1.230780e-02   2.939414e-09   2.231822e+00
1.253708e-02   3.926485e-09   2.231961e+00
1.277063e-02   5.235957e-09   2.232233e+00
1.300854e-02   6.970377e-09   2.232829e+00
1.325087e-02   9.263944e-09   2.233835e+00
1.349772e-02   1.229130e-08   2.234964e+00
1.374917e-02   1.627941e-08   2.235842e+00
1.400531e-02   2.152260e-08   2.236096e+00
1.426621e-02   2.840204e-08   2.235495e+00
1.453198e-02   3.741196e-08   2.234340e+00
1.480269e-02   4.919162e-08   2.233059e+00
1.507845e-02   6.456618e-08   2.232076e+00
1.535935e-02   8.460011e-08   2.231612e+00
1.564548e-02   1.106665e-07   2.231532e+00
1.593694e-02   1.445335e-07   2.231661e+00
1.623382e-02   1.884752e-07   2.231841e+00
1.653624e-02   2.454017e-07   2.232003e+00
1.684430e-02   3.190319e-07   2.232126e+00
1.715809e-02   4.141126e-07   2.232187e+00
1.747773e-02   5.366929e-07   2.232165e+00
1.780332e-02   6.944665e-07   2.232036e+00
1.813498e-02   8.972013e-07   2.231780e+00
1.847281e-02   1.157287e-06   2.231404e+00
1.881694e-02   1.490425e-06   2.230952e+00
1.916748e-02   1.916470e-06   2.230470e+00
1.952456e-02   2.460496e-06   2.230005e+00
1.988828e-02   3.154111e-06   2.229603e+00
2.025878e-02   4.037134e-06   2.229306e+00
2.063618e-02   5.159957e-06   2.229124e+00
2.102061e-02   6.586382e-06   2.229042e+00
2.141220e-02   8.397050e-06   2.229048e+00
2.181109e-02   1.069392e-05   2.229127e+00
2.221741e-02   1.360593e-05   2.229266e+00
2.263130e-02   1.729628e-05   2.229453e+00
2.305289e-02   2.197155e-05   2.229673e+00
2.348235e-02   2.789357e-05   2.229913e+00
2.391980e-02   3.539434e-05   2.230161e+00
2.436540e-02   4.489532e-05   2.230401e+00
2.481930e-02   5.693211e-05   2.230622e+00
2.528166e-02   7.218611e-05   2.230809e+00
2.575263e-02   9.152611e-05   2.230960e+00
2.623238e-02   1.160616e-04   2.231074e+00
2.672106e-02   1.472113e-04   2.231155e+00
2.721885e-02   1.867930e-04   2.231203e+00
2.772591e-02   2.371393e-04   2.231221e+00
2.824241e-02   3.012502e-04   2.231211e+00
2.876854e-02   3.829917e-04   2.231174e+00
2.930447e-02   4.873564e-04   2.231112e+00
2.985038e-02   6.208067e-04   2.231027e+00
3.040646e-02   7.917113e-04   2.230921e+00
3.097291e-02   1.010744e-03   2.230796e+00
3.154990e-02   1.291509e-03   2.230655e+00
3.213764e-02   1.651398e-03   2.230500e+00
3.273634e-02   2.112620e-03   2.230335e+00
3.334618e-02   2.703481e-03   2.230162e+00
3.396739e-02   3.459985e-03   2.229984e+00
3.460016e-02   4.427832e-03   2.229803e+00
3.524473e-02   5.664882e-03   2.229622e+00
3.590130e-02   7.244199e-03   2.229444e+00
3.657011e-02   9.257772e-03   2.229272e+00
3.725137e-02   1.182105e-02   2.229108e+00
3.794533e-02   1.507843e-02   2.228954e+00
3.865221e-02   1.920983e-02   2.228814e+00
3.937226e-02   2.443854e-02   2.228691e+00
4.010573e-02   3.104044e-02   2.228586e+00
4.085286e-02   3.935596e-02   2.228505e+00
4.161391e-02   4.980611e-02   2.228453e+00
4.238913e-02   6.290844e-02   2.228438e+00
4.317880e-02   7.929653e-02   2.228469e+00
4.398317e-02   9.974315e-02   2.228552e+00
4.480254e-02   1.251873e-01   2.228695e+00
4.563716e-02   1.567655e-01   2.228905e+00
4.648734e-02   1.958477e-01   2.229191e+00
4.735335e-02   2.440781e-01   2.229560e+00
4.823549e-02   3.034214e-01   2.230019e+00
4.913407e-02   3.762144e-01   2.230576e+00
5.004939e-02   4.652230e-01   2.231238e+00
5.098176e-02   5.737183e-01   2.232003e+00
5.193150e-02   7.056016e-01   2.232831e+00
5.289893e-02   8.654919e-01   2.233674e+00
5.388438e-02   1.058835e+00   2.234486e+00
5.488820e-02   1.292036e+00   2.235217e+00
5.591071e-02   1.572611e+00   2.235821e+00
5.695227e-02   1.909358e+00   2.236249e+00
5.801323e-02   2.312556e+00   2.236455e+00
5.909396e-02   2.794184e+00   2.236391e+00
6.019482e-02   3.368179e+00   2.236008e+00
6.131619e-02   4.050648e+00   2.235301e+00
6.245845e-02   4.860022e+00   2.234361e+00
6.362198e-02   5.817399e+00   2.233295e+00
6.480720e-02   6.946868e+00   2.232209e+00
6.601449e-02   8.275824e+00   2.231208e+00
6.724427e-02   9.835311e+00   2.230397e+00
6.849697e-02   1.166037e+01   2.229883e+00
6.977300e-02   1.379037e+01   2.229770e+00
7.107280e-02   1.626968e+01   2.230138e+00
7.239681e-02   1.914988e+01   2.230881e+00
7.374549e-02   2.249065e+01   2.231817e+00
7.511929e-02   2.636036e+01   2.232764e+00
7.651869e-02   3.083744e+01   2.233540e+00
7.794416e-02   3.601205e+01   2.233962e+00
7.939618e-02   4.198790e+01   2.233846e+00
8.087525e-02   4.888407e+01   2.233027e+00
8.238187e-02   5.682861e+01   2.231605e+00
8.391656e-02   6.595637e+01   2.229888e+00
8.547985e-02   7.641325e+01   2.228191e+00
8.707225e-02   8.835579e+01   2.226826e+00
8.869432e-02   1.019501e+02   2.226107e+00
9.034660e-02   1.173707e+02   2.226343e+00
9.202967e-02   1.348137e+02   2.227636e+00
9.374409e-02   1.545275e+02   2.229632e+00
9.549045e-02   1.768011e+02   2.231911e+00
9.726934e-02   2.019674e+02   2.234055e+00
9.908137e-02   2.304115e+02   2.235645e+00
1.009272e-01   2.625794e+02   2.236274e+00
1.028073e-01   2.989405e+02   2.235904e+00
1.047225e-01   3.399681e+02   2.234861e+00
1.066734e-01   3.861710e+02   2.233488e+00
1.086606e-01   4.380945e+02   2.232128e+00
1.106848e-01   4.963198e+02   2.231120e+00
1.127468e-01   5.614849e+02   2.230646e+00
1.148472e-01   6.343110e+02   2.230647e+00
1.169866e-01   7.155854e+02   2.231046e+00
1.191660e-01   8.061633e+02   2.231762e+00
1.213859e-01   9.069752e+02   2.232712e+00
1.236472e-01   1.019068e+03   2.233704e+00
1.259506e-01   1.143622e+03   2.234473e+00
1.282970e-01   1.281945e+03   2.234751e+00
1.306870e-01   1.435491e+03   2.234273e+00
1.331216e-01   1.605834e+03   2.233079e+00
1.356015e-01   1.794625e+03   2.231738e+00
1.381276e-01   2.003651e+03   2.230873e+00
1.407008e-01   2.234850e+03   2.231102e+00
1.433219e-01   2.490335e+03   2.232548e+00
1.459919e-01   2.772445e+03   2.234424e+00
1.487115e-01   3.083730e+03   2.235844e+00
1.514819e-01   3.426966e+03   2.235960e+00
1.543038e-01   3.805011e+03   2.234745e+00
1.571784e-01   4.220750e+03   2.232925e+00
1.601064e-01   4.677189e+03   2.231251e+00
1.630891e-01   5.177550e+03   2.230300e+00
1.661273e-01   5.725587e+03   2.230028e+00
1.692220e-01   6.325443e+03   2.230250e+00
1.723745e-01   6.981615e+03   2.230781e+00
1.755856e-01   7.698991e+03   2.231439e+00
1.788566e-01   8.482884e+03   2.232040e+00
1.821885e-01   9.339056e+03   2.232410e+00
1.855825e-01   1.027353e+04   2.232519e+00
1.890397e-01   1.129259e+04   2.232429e+00
1.925614e-01   1.240294e+04   2.232205e+00
1.961486e-01   1.361172e+04   2.231912e+00
1.998026e-01   1.492653e+04   2.231615e+00
2.035248e-01   1.635544e+04   2.231367e+00
2.073162e-01   1.790709e+04   2.231177e+00
2.111783e-01   1.959066e+04   2.231036e+00
2.151123e-01   2.141589e+04   2.230939e+00
2.191197e-01   2.339313e+04   2.230878e+00
2.232016e-01   2.553333e+04   2.230847e+00
2.273597e-01   2.784810e+04   2.230839e+00
2.315951e-01   3.034970e+04   2.230847e+00
2.359095e-01   3.305112e+04   2.230863e+00
2.403043e-01   3.596603e+04   2.230883e+00
2.447809e-01   3.910890e+04   2.230897e+00
2.493409e-01   4.249494e+04   2.230901e+00
2.539859e-01   4.614017e+04   2.230888e+00
2.587174e-01   5.006137e+04   2.230863e+00
2.635371e-01   5.427608e+04   2.230836e+00
2.684465e-01   5.880270e+04   2.230814e+00
2.734474e-01   6.366049e+04   2.230807e+00
2.785414e-01   6.886956e+04   2.230823e+00
2.837304e-01   7.445093e+04   2.230871e+00
2.890160e-01   8.042650e+04   2.230960e+00
2.944000e-01   8.681910e+04   2.231099e+00
2.998844e-01   9.365247e+04   2.231295e+00
3.054710e-01   1.009515e+05   2.231554e+00
3.111616e-01   1.087433e+05   2.231860e+00
3.169582e-01   1.170567e+05   2.232190e+00
3.228628e-01   1.259218e+05   2.232524e+00
3.288774e-01   1.353707e+05   2.232841e+00
3.350041e-01   1.454370e+05   2.233119e+00
3.412449e-01   1.561562e+05   2.233337e+00
3.476019e-01   1.675657e+05   2.233474e+00
3.540774e-01   1.797049e+05   2.233510e+00
3.606735e-01   1.926121e+05   2.233447e+00
3.673925e-01   2.063247e+05   2.233302e+00
3.742366e-01   2.208809e+05   2.233095e+00
3.812083e-01   2.363194e+05   2.232842e+00
3.883098e-01   2.526794e+05   2.232562e+00
3.955436e-01   2.700006e+05   2.232272e+00
4.029122e-01   2.883230e+05   2.231992e+00
4.104181e-01   3.076923e+05   2.231731e+00
4.180637e-01   3.281634e+05   2.231492e+00
4.258518e-01   3.497953e+05   2.231278e+00
4.337850e-01   3.726510e+05   2.231090e+00
4.418660e-01   3.967978e+05   2.230929e+00
4.500975e-01   4.223077e+05   2.230799e+00
4.584824e-01   4.492547e+05   2.230698e+00
4.670234e-01   4.777049e+05   2.230621e+00
4.757236e-01   5.077231e+05   2.230558e+00
4.845859e-01   5.393752e+05   2.230502e+00
4.936132e-01   5.727283e+05   2.230445e+00
5.028087e-01   6.078503e+05   2.230378e+00
5.121755e-01   6.448138e+05   2.230298e+00
5.217169e-01   6.836994e+05   2.230208e+00
5.314359e-01   7.245916e+05   2.230113e+00
5.413360e-01   7.675783e+05   2.230018e+00
5.514206e-01   8.127507e+05   2.229927e+00
5.616930e-01   8.602036e+05   2.229846e+00
5.721568e-01   9.100357e+05   2.229778e+00
5.828155e-01   9.623497e+05   2.229729e+00
5.936727e-01   1.017252e+06   2.229703e+00
6.047322e-01   1.074855e+06   2.229704e+00
6.159978e-01   1.135267e+06   2.229728e+00
6.274732e-01   1.198600e+06   2.229759e+00
6.391624e-01   1.264963e+06   2.229781e+00
6.510694e-01   1.334470e+06   2.229777e+00
6.631981e-01   1.407237e+06   2.229731e+00
6.755528e-01   1.483382e+06   2.229626e+00
6.881377e-01   1.563025e+06   2.229447e+00
7.009570e-01   1.646290e+06   2.229177e+00
7.140151e-01   1.733302e+06   2.228810e+00
7.273165e-01   1.824190e+06   2.228379e+00
7.408657e-01   1.919088e+06   2.227922e+00
7.546673e-01   2.018133e+06   2.227479e+00
7.687260e-01   2.121462e+06   2.227087e+00
7.830465e-01   2.229216e+06   2.226785e+00
7.976339e-01   2.341540e+06   2.226613e+00
8.124930e-01   2.458579e+06   2.226603e+00
8.276289e-01   2.580490e+06   2.226756e+00
8.430468e-01   2.707433e+06   2.227056e+00
8.587519e-01   2.839573e+06   2.227491e+00
8.747496e-01   2.977079e+06   2.228044e+00
8.910453e-01   3.120127e+06   2.228704e+00
9.076446e-01   3.268893e+06   2.229454e+00
9.245531e-01   3.423545e+06   2.230267e+00
9.417766e-01   3.584237e+06   2.231099e+00
9.593209e-01   3.751119e+06   2.231905e+00
9.771921e-01   3.924339e+06   2.232643e+00
9.953962e-01   4.104044e+06   2.233267e+00
1.013939e+00   4.290376e+06   2.233737e+00
1.032828e+00   4.483465e+06   2.234053e+00
1.052069e+00   4.683432e+06   2.234232e+00
1.071668e+00   4.890387e+06   2.234294e+00
1.091632e+00   5.104436e+06   2.234259e+00
1.111968e+00   5.325674e+06   2.234143e+00
1.132683e+00   5.554186e+06   2.233968e+00
1.153783e+00   5.790047e+06   2.233752e+00
1.175277e+00   6.033321e+06   2.233513e+00
1.197171e+00   6.284058e+06   2.233271e+00
1.219473e+00   6.542295e+06   2.233045e+00
1.242191e+00   6.808055e+06   2.232854e+00
1.265332e+00   7.081351e+06   2.232715e+00
1.288904e+00   7.362240e+06   2.232629e+00
1.312915e+00   7.650816e+06   2.232587e+00
1.337373e+00   7.947172e+06   2.232580e+00
1.362287e+00   8.251402e+06   2.232597e+00
1.387665e+00   8.563597e+06   2.232628e+00
1.413516e+00   8.883851e+06   2.232665e+00
1.439848e+00   9.212256e+06   2.232696e+00
1.466671e+00   9.548906e+06   2.232713e+00
1.493993e+00   9.893893e+06   2.232706e+00
1.521825e+00   1.024731e+07   2.232666e+00
1.550175e+00   1.060921e+07   2.232603e+00
1.579053e+00   1.097965e+07   2.232531e+00
1.608469e+00   1.135865e+07   2.232467e+00
1.638434e+00   1.174625e+07   2.232425e+00
1.668956e+00   1.214247e+07   2.232422e+00
1.700047e+00   1.254733e+07   2.232473e+00
1.731717e+00   1.296085e+07   2.232594e+00
1.763977e+00   1.338302e+07   2.232800e+00
1.796838e+00   1.381396e+07   2.233085e+00
1.830312e+00   1.425386e+07   2.233418e+00
1.864409e+00   1.470296e+07   2.233769e+00
1.899141e+00   1.516151e+07   2.234106e+00
1.934520e+00   1.562981e+07   2.234396e+00
1.970558e+00   1.610815e+07   2.234608e+00
2.007267e+00   1.659687e+07   2.234710e+00
2.044661e+00   1.709629e+07   2.234685e+00
2.082751e+00   1.760662e+07   2.234548e+00
2.121550e+00   1.812812e+07   2.234319e+00
2.161073e+00   1.866102e+07   2.234016e+00
2.201331e+00   1.920558e+07   2.233659e+00
2.242340e+00   1.976207e+07   2.233268e+00
2.284112e+00   2.033077e+07   2.232862e+00
2.326663e+00   2.091199e+07   2.232460e+00
2.370006e+00   2.150604e+07   2.232082e+00
2.414157e+00   2.211325e+07   2.231747e+00
2.459130e+00   2.273397e+07   2.231475e+00
2.504942e+00   2.336857e+07   2.231284e+00
2.551606e+00   2.401733e+07   2.231187e+00
2.599140e+00   2.468027e+07   2.231175e+00
2.647559e+00   2.535729e+07   2.231232e+00
2.696881e+00   2.604830e+07   2.231345e+00
2.747121e+00   2.675315e+07   2.231501e+00
2.798297e+00   2.747166e+07   2.231686e+00
2.850426e+00   2.820364e+07   2.231885e+00
2.903527e+00   2.894883e+07   2.232085e+00
2.957617e+00   2.970695e+07   2.232273e+00
3.012714e+00   3.047769e+07   2.232434e+00
3.068838e+00   3.126107e+07   2.232561e+00
3.126007e+00   3.205795e+07   2.232660e+00
3.184242e+00   3.286937e+07   2.232739e+00
3.243561e+00   3.369645e+07   2.232804e+00
3.303985e+00   3.454045e+07   2.232864e+00
3.365535e+00   3.540269e+07   2.232927e+00
3.428231e+00   3.628463e+07   2.232999e+00
3.492096e+00   3.718783e+07   2.233088e+00
3.557150e+00   3.811372e+07   2.233199e+00
3.623416e+00   3.906230e+07   2.233323e+00
3.690917e+00   4.003297e+07   2.233445e+00
3.759675e+00   4.102501e+07   2.233551e+00
3.829714e+00   4.203760e+07   2.233627e+00
3.901058e+00   4.306982e+07   2.233657e+00
3.973730e+00   4.412061e+07   2.233628e+00
4.047757e+00   4.518886e+07   2.233525e+00
4.123163e+00   4.627421e+07   2.233351e+00
4.199973e+00   4.737689e+07   2.233118e+00
4.278214e+00   4.849714e+07   2.232838e+00
4.357913e+00   4.963522e+07   2.232523e+00
4.439097e+00   5.079141e+07   2.232186e+00
4.521792e+00   5.196598e+07   2.231839e+00
4.606029e+00   5.315923e+07   2.231493e+00
4.691835e+00   5.437150e+07   2.231162e+00
4.779239e+00   5.560310e+07   2.230857e+00
4.868271e+00   5.685440e+07   2.230591e+00
