# T[K] Gamma_nTOp[1/tau_n] Gamma_pTOn[1/tau_n]
# fingerprint_hash: 5a4d080246b1f901
# fingerprint: {"QED_corrections":true,"T_end_MeV":0.001,"T_start_cosmo_MeV":100.0,"analytic_distortions":false,"delta_xi_nu":0.0,"finite_mass_corrections":false,"format_version":1,"incomplete_decoupling":false,"munuOverTnu":0.01,"nevo_file":null,"nevo_file_prefix":"NEVOPRIMAT","nevo_spectral_file":null,"radiative_corrections":true,"sampling_nTOp_per_decade":150,"spectral_distortions":false,"y_SZ":0.0,"y_gray":0.0}
1.160451812155007198e+07 1.000000000454349003e+00 0.000000000000000000e+00
1.178433031761291809e+07 1.000000000477319073e+00 0.000000000000000000e+00
1.196692870656324737e+07 1.000000000501495956e+00 0.000000000000000000e+00
1.215235646050493419e+07 1.000000000526946486e+00 0.000000000000000000e+00
1.234065742049430311e+07 1.000000000553739943e+00 0.000000000000000000e+00
1.253187610690555163e+07 1.000000000581950488e+00 0.000000000000000000e+00
1.272605772995679639e+07 1.000000000611656725e+00 0.000000000000000000e+00
1.292324820039921999e+07 1.000000000642940590e+00 0.000000000000000000e+00
1.312349414037183113e+07 1.000000000675889567e+00 0.000000000000000000e+00
1.332684289442444220e+07 1.000000000710595360e+00 0.000000000000000000e+00
1.353334254071142524e+07 1.000000000747155227e+00 0.000000000000000000e+00
1.374304190235893987e+07 1.000000000785670862e+00 0.000000000000000000e+00
1.395599055900826678e+07 1.000000000826251068e+00 0.000000000000000000e+00
1.417223885853803717e+07 1.000000000869009309e+00 0.000000000000000000e+00
1.439183792896807566e+07 1.000000000914066378e+00 0.000000000000000000e+00
1.461483969054769725e+07 1.000000000961548396e+00 0.000000000000000000e+00
1.484129686803135276e+07 1.000000001011589923e+00 0.000000000000000000e+00
1.507126300314432755e+07 1.000000001064332400e+00 0.000000000000000000e+00
1.530479246724189445e+07 1.000000001119924598e+00 0.000000000000000000e+00
1.554194047416432761e+07 1.000000001178524389e+00 0.000000000000000000e+00
1.578276309329124913e+07 1.000000001240297642e+00 0.000000000000000000e+00
1.602731726279822551e+07 1.000000001305420438e+00 0.000000000000000000e+00
1.627566080311877280e+07 1.000000001374077963e+00 0.000000000000000000e+00
1.652785243061496504e+07 1.000000001446466058e+00 0.000000000000000000e+00
1.678395177145985141e+07 1.000000001522791893e+00 0.000000000000000000e+00
1.704401937573499978e+07 1.000000001603273514e+00 0.000000000000000000e+00
1.730811673174647242e+07 1.000000001688142293e+00 0.000000000000000000e+00
1.757630628056262806e+07 1.000000001777641812e+00 0.000000000000000000e+00
1.784865143077719212e+07 1.000000001872029864e+00 0.000000000000000000e+00
1.812521657350106537e+07 1.000000001971579344e+00 0.000000000000000000e+00
1.840606709758647159e+07 1.000000002076578021e+00 0.000000000000000000e+00
1.869126940508694202e+07 1.000000002187330317e+00 0.000000000000000000e+00
1.898089092695691064e+07 1.000000002304157976e+00 0.000000000000000000e+00
1.927500013899453729e+07 1.000000002427401613e+00 0.000000000000000000e+00
1.957366657803158462e+07 1.000000002557420498e+00 0.000000000000000000e+00
1.987696085837414861e+07 1.000000002694594992e+00 0.000000000000000000e+00
2.018495468849814311e+07 1.000000002839327440e+00 0.000000000000000000e+00
2.049772088800346479e+07 1.000000002992043280e+00 0.000000000000000000e+00
2.081533340483090654e+07 1.000000003153192152e+00 0.000000000000000000e+00
2.113786733274578676e+07 1.000000003323249453e+00 0.000000000000000000e+00
2.146539892909253761e+07 1.000000003502718560e+00 0.000000000000000000e+00
2.179800563282437995e+07 1.000000003692131489e+00 0.000000000000000000e+00
2.213576608281236142e+07 1.000000003892051126e+00 0.000000000000000000e+00
2.247876013643810898e+07 1.000000004103072548e+00 0.000000000000000000e+00
2.282706888847468048e+07 1.000000004325825920e+00 0.000000000000000000e+00
2.318077469025994465e+07 1.000000004560976929e+00 0.000000000000000000e+00
2.353996116916708648e+07 1.000000004809231013e+00 0.000000000000000000e+00
2.390471324837678671e+07 1.000000005071333353e+00 0.000000000000000000e+00
2.427511716695579141e+07 1.000000005348073318e+00 0.000000000000000000e+00
2.465126050024658069e+07 1.000000005640285572e+00 0.000000000000000000e+00
2.503323218057302758e+07 1.000000005948852966e+00 0.000000000000000000e+00
2.542112251826666296e+07 1.000000006274710973e+00 0.000000000000000000e+00
2.581502322301920131e+07 1.000000006618848358e+00 0.000000000000000000e+00
2.621502742556547374e+07 1.000000006982312062e+00 0.000000000000000000e+00
2.662122969970256090e+07 1.000000007366210086e+00 0.000000000000000000e+00
2.703372608465004340e+07 1.000000007771715271e+00 0.000000000000000000e+00
2.745261410775677487e+07 1.000000008200068402e+00 0.000000000000000000e+00
2.787799280755945295e+07 1.000000008652583539e+00 0.000000000000000000e+00
2.830996275719850883e+07 1.000000009130651346e+00 0.000000000000000000e+00
2.874862608819680288e+07 1.000000009635744425e+00 0.000000000000000000e+00
2.919408651460680366e+07 1.000000010169421527e+00 0.000000000000000000e+00
2.964644935753189772e+07 1.000000010733332445e+00 0.000000000000000000e+00
3.010582157002766803e+07 1.000000011329224892e+00 0.000000000000000000e+00
3.057231176238903776e+07 1.000000011958948720e+00 0.000000000000000000e+00
3.104603022782918811e+07 1.000000012624462808e+00 0.000000000000000000e+00
3.152708896855644137e+07 1.000000013327841941e+00 0.000000000000000000e+00
3.201560172225513682e+07 1.000000014071282806e+00 0.000000000000000000e+00
3.251168398897688091e+07 1.000000014857111985e+00 0.000000000000000000e+00
3.301545305844844505e+07 1.000000015687793065e+00 0.000000000000000000e+00
3.352702803780281544e+07 1.000000016565936400e+00 0.000000000000000000e+00
3.404652987973993272e+07 1.000000017494305560e+00 0.000000000000000000e+00
3.457408141112377495e+07 1.000000018475829089e+00 0.000000000000000000e+00
3.510980736202257872e+07 1.000000019513607619e+00 0.000000000000000000e+00
3.565383439519898593e+07 1.000000020610927631e+00 0.000000000000000000e+00
3.620629113605720550e+07 1.000000021771269232e+00 0.000000000000000000e+00
3.676730820305417478e+07 1.000000022998319693e+00 0.000000000000000000e+00
3.733701823858191818e+07 1.000000024295985890e+00 0.000000000000000000e+00
3.791555594032848626e+07 1.000000025668407622e+00 0.000000000000000000e+00
3.850305809312484413e+07 1.000000027119970047e+00 0.000000000000000000e+00
3.909966360128491372e+07 1.000000028655321005e+00 0.000000000000000000e+00
3.970551352144742757e+07 1.000000030279384999e+00 0.000000000000000000e+00
4.032075109592594206e+07 1.000000031997380301e+00 0.000000000000000000e+00
4.094552178657598794e+07 1.000000033814837819e+00 0.000000000000000000e+00
4.157997330918689817e+07 1.000000035737617976e+00 0.000000000000000000e+00
4.222425566840653867e+07 1.000000037771933137e+00 0.000000000000000000e+00
4.287852119320724159e+07 1.000000039924367368e+00 0.000000000000000000e+00
4.354292457290121913e+07 1.000000042201898420e+00 0.000000000000000000e+00
4.421762289371407777e+07 1.000000044611923267e+00 0.000000000000000000e+00
4.490277567592503130e+07 1.000000047162282746e+00 0.000000000000000000e+00
4.559854491158261150e+07 1.000000049861288209e+00 0.000000000000000000e+00
4.630509510280475020e+07 1.000000052717750831e+00 0.000000000000000000e+00
4.702259330067235976e+07 1.000000055741011584e+00 0.000000000000000000e+00
4.775120914472556859e+07 1.000000058940973213e+00 0.000000000000000000e+00
4.849111490307190269e+07 1.000000062328135542e+00 0.000000000000000000e+00
4.924248551311602443e+07 1.000000065913630110e+00 0.000000000000000000e+00
5.000549862292049825e+07 1.000000069709260586e+00 0.000000000000000000e+00
5.078033463320748508e+07 1.000000073727542071e+00 0.000000000000000000e+00
5.156717674001127481e+07 1.000000077981746172e+00 0.000000000000000000e+00
5.236621097799165547e+07 1.000000082485945629e+00 0.000000000000000000e+00
5.317762626441849768e+07 1.000000087255064285e+00 0.000000000000000000e+00
5.400161444383779913e+07 1.000000092304928367e+00 0.000000000000000000e+00
5.483837033342991769e+07 1.000000097652322895e+00 0.000000000000000000e+00
5.568809176907058060e+07 1.000000103315048738e+00 0.000000000000000000e+00
5.655097965210559964e+07 1.000000109311985685e+00 0.000000000000000000e+00
5.742723799685039371e+07 1.000000115663159495e+00 0.000000000000000000e+00
5.831707397882549465e+07 1.000000122389809398e+00 0.000000000000000000e+00
5.922069798373948038e+07 1.000000129514465375e+00 0.000000000000000000e+00
6.013832365723089874e+07 1.000000137061025640e+00 0.000000000000000000e+00
6.107016795538090169e+07 1.000000145054841472e+00 0.000000000000000000e+00
6.201645119600865245e+07 1.000000153522805579e+00 0.000000000000000000e+00
6.297739711076147109e+07 1.000000162493447808e+00 0.000000000000000000e+00
6.395323289801218361e+07 1.000000171997034393e+00 0.000000000000000000e+00
6.494418927657606453e+07 1.000000182065676313e+00 0.000000000000000000e+00
6.595050054026017338e+07 1.000000192733441207e+00 0.000000000000000000e+00
6.697240461325791478e+07 1.000000204036475493e+00 0.000000000000000000e+00
6.801014310640202463e+07 1.000000216013130272e+00 0.000000000000000000e+00
6.906396137428861856e+07 1.000000228704098770e+00 0.000000000000000000e+00
7.013410857328766584e+07 1.000000242152560448e+00 0.000000000000000000e+00
7.122083772045093775e+07 1.000000256404332877e+00 0.000000000000000000e+00
7.232440575333356857e+07 1.000000271508036276e+00 0.000000000000000000e+00
7.344507359074223042e+07 1.000000287515265374e+00 0.000000000000000000e+00
7.458310619442476332e+07 1.000000304480772817e+00 0.000000000000000000e+00
7.573877263171552122e+07 1.000000322462665014e+00 0.000000000000000000e+00
7.691234613915163279e+07 1.000000341522608860e+00 0.000000000000000000e+00
7.810410418707470596e+07 1.000000361726050446e+00 0.000000000000000000e+00
7.931432854523386061e+07 1.000000383142451321e+00 0.000000000000000000e+00
8.054330534940499067e+07 1.000000405845534734e+00 0.000000000000000000e+00
8.179132516904246807e+07 1.000000429913549649e+00 0.000000000000000000e+00
8.305868307597909868e+07 1.000000455429551405e+00 0.000000000000000000e+00
8.434567871419046819e+07 1.000000482481698372e+00 0.000000000000000000e+00
8.565261637064042687e+07 1.000000511163568806e+00 0.000000000000000000e+00
8.697980504722426832e+07 1.000000541574496804e+00 0.000000000000000000e+00
8.832755853382664919e+07 1.000000573819927130e+00 0.000000000000000000e+00
8.969619548251155019e+07 1.000000608011796688e+00 0.000000000000000000e+00
9.108603948286184669e+07 1.000000644268935313e+00 0.000000000000000000e+00
9.249741913848623633e+07 1.000000682717493428e+00 0.000000000000000000e+00
9.393066814471167326e+07 1.000000723491397681e+00 0.000000000000000000e+00
9.538612536747957766e+07 1.000000766732832114e+00 0.000000000000000000e+00
9.686413492346459627e+07 1.000000812592751975e+00 0.000000000000000000e+00
9.836504626143486798e+07 1.000000861231427951e+00 0.000000000000000000e+00
9.988921424487280846e+07 1.000000912819025256e+00 0.000000000000000000e+00
1.014369992358764559e+08 1.000000967536218699e+00 0.000000000000000000e+00
1.030087671803597659e+08 1.000001025574846159e+00 0.000000000000000000e+00
1.046048896945751756e+08 1.000001087138602474e+00 0.000000000000000000e+00
1.062257441529747695e+08 1.000001152443777741e+00 0.000000000000000000e+00
1.078717137774338573e+08 1.000001221720040689e+00 0.000000000000000000e+00
1.095431877278568894e+08 1.000001295211271568e+00 0.000000000000000000e+00
1.112405611941873878e+08 1.000001373176447217e+00 0.000000000000000000e+00
1.129642354898433983e+08 1.000001455890581203e+00 0.000000000000000000e+00
1.147146181466008723e+08 1.000001543645723467e+00 0.000000000000000000e+00
1.164921230109472573e+08 1.000001636752021028e+00 0.000000000000000000e+00
1.182971703419280052e+08 1.000001735538847525e+00 0.000000000000000000e+00
1.201301869105092436e+08 1.000001840356000926e+00 0.000000000000000000e+00
1.219916061004801840e+08 1.000001951574977843e+00 0.000000000000000000e+00
1.238818680109188110e+08 1.000002069590327780e+00 0.000000000000000000e+00
1.258014195602454841e+08 1.000002194821091095e+00 0.000000000000000000e+00
1.277507145918886960e+08 1.000002327712328221e+00 0.000000000000000000e+00
1.297302139815881997e+08 1.000002468736743255e+00 0.000000000000000000e+00
1.317403857463608384e+08 1.000002618396412579e+00 0.000000000000000000e+00
1.337817051551546305e+08 1.000002777224617168e+00 0.000000000000000000e+00
1.358546548412176967e+08 1.000002945787794140e+00 0.000000000000000000e+00
1.379597249162081480e+08 1.000003124687608214e+00 0.000000000000000000e+00
1.400974130860720873e+08 1.000003314563154166e+00 0.000000000000000000e+00
1.422682247687174082e+08 1.000003516093297407e+00 0.000000000000000000e+00
1.444726732135106027e+08 1.000003729999160873e+00 0.000000000000000000e+00
1.467112796226254404e+08 1.000003957046768699e+00 0.000000000000000000e+00
1.489845732742717564e+08 1.000004198049856630e+00 0.000000000000000000e+00
1.512930916478338540e+08 1.000004453872856303e+00 0.000000000000000000e+00
1.536373805509477854e+08 1.000004725434070929e+00 0.000000000000000000e+00
1.560179942485477626e+08 1.000005013709046597e+00 0.000000000000000000e+00
1.584354955939120650e+08 1.000005319734157849e+00 0.000000000000000000e+00
1.608904561617396772e+08 1.000005644610417743e+00 0.000000000000000000e+00
1.633834563832888305e+08 1.000005989507527504e+00 0.000000000000000000e+00
1.659150856836094260e+08 1.000006355668182412e+00 0.000000000000000000e+00
1.684859426209020317e+08 1.000006744412643922e+00 0.000000000000000000e+00
1.710966350280363262e+08 1.000007157143604886e+00 0.000000000000000000e+00
1.737477801562620401e+08 1.000007595351357415e+00 0.000000000000000000e+00
1.764400048211470246e+08 1.000008060619286265e+00 0.000000000000000000e+00
1.791739455507765412e+08 1.000008554629708390e+00 0.000000000000000000e+00
1.819502487362487614e+08 1.000009079170080195e+00 0.000000000000000000e+00
1.847695707845024765e+08 1.000009636139595370e+00 0.000000000000000000e+00
1.876325782735125422e+08 1.000010227556196174e+00 0.000000000000000000e+00
1.905399481098903120e+08 1.000010855564030132e+00 0.000000000000000000e+00
1.934923676889261007e+08 1.000011522441370593e+00 0.000000000000000000e+00
1.964905350571113229e+08 1.000012230609043096e+00 0.000000000000000000e+00
1.995351590771790445e+08 1.000012982639378434e+00 0.000000000000000000e+00
2.026269595957019329e+08 1.000013781265720825e+00 0.000000000000000000e+00
2.057666676132869124e+08 1.000014629392558030e+00 0.000000000000000000e+00
2.089550254574079216e+08 1.000015530106268535e+00 0.000000000000000000e+00
2.121927869579117596e+08 1.000016486686552852e+00 0.000000000000000000e+00
2.154807176252569854e+08 1.000017502618588461e+00 0.000000000000000000e+00
2.188195948314920366e+08 1.000018581605947920e+00 0.000000000000000000e+00
2.222102079940649271e+08 1.000019727584331442e+00 0.000000000000000000e+00
2.256533587624525726e+08 1.000020944736167650e+00 0.000000000000000000e+00
2.291498612077109218e+08 1.000022237506133616e+00 0.000000000000000000e+00
2.327005420149325728e+08 1.000023610617655434e+00 0.000000000000000000e+00
2.363062406787165999e+08 1.000025069090450858e+00 0.000000000000000000e+00
2.399678097016378045e+08 1.000026618259178379e+00 0.000000000000000000e+00
2.436861147958159745e+08 1.000028263793266481e+00 0.000000000000000000e+00
2.474620350875932574e+08 1.000030011717997214e+00 0.000000000000000000e+00
2.512964633253887594e+08 1.000031868436922045e+00 7.765927447715602530e-29
2.551903060907726884e+08 1.000033840755700343e+00 2.014584255710219652e-28
2.591444840128114223e+08 1.000035935907445772e+00 5.153564284592168162e-28
2.631599319857335687e+08 1.000038161579687168e+00 1.300324390909428918e-27
2.672375993899689615e+08 1.000040525943041159e+00 3.236738744655437479e-27
2.713784503166126013e+08 1.000043037681715319e+00 7.949948092593843445e-27
2.755834637953664660e+08 1.000045706025952219e+00 1.927121327602540864e-26
2.798536340260137916e+08 1.000048540786560913e+00 4.611349057728206930e-26
2.841899706134794354e+08 1.000051552391661991e+00 1.089446322885016109e-25
2.885934988065328598e+08 1.000054751925809615e+00 2.541709964235442301e-25
2.930652597401899099e+08 1.000058151171655529e+00 5.856937418583066513e-25
2.976063106818702817e+08 1.000061762654279374e+00 1.333277243827762232e-24
3.022177252813694477e+08 1.000065599688498619e+00 2.998853455530114457e-24
3.069005938247038126e+08 1.000069676429252929e+00 6.665815474747119688e-24
3.116560234918893576e+08 1.000074007925376929e+00 1.464508038920523190e-23
3.164851386187142134e+08 1.000078610176943883e+00 3.180875229367346217e-23
3.213890809625677466e+08 1.000083500196461639e+00 6.831132527125867306e-23
3.263690099723885655e+08 1.000088696074374894e+00 1.450786951870722134e-22
3.314261030627954006e+08 1.000094217049077416e+00 3.047557751754764180e-22
3.365615558924655318e+08 1.000100083582002419e+00 6.332993351058818352e-22
3.417765826468266249e+08 1.000106317437447379e+00 1.302102647066838006e-21
3.470724163251295090e+08 1.000112941769067065e+00 2.649291595063253972e-21
3.524503090319680572e+08 1.000119981212262310e+00 5.334956097531453419e-21
3.579115322733171582e+08 1.000127461983674193e+00 1.063446522153979720e-20
3.634573772571575642e+08 1.000135411988854139e+00 2.098699901232902889e-20
3.690891551987583041e+08 1.000143860936157703e+00 4.101097359475941211e-20
3.748081976306903362e+08 1.000152840462726456e+00 7.936500946080512269e-20
3.806158567176433802e+08 1.000162384269469351e+00 1.521249967830413769e-19
3.865135055761207938e+08 1.000172528267929462e+00 2.888530455364019772e-19
3.925025385990885496e+08 1.000183310737478237e+00 5.433999764493462787e-19
3.985843717856540680e+08 1.000194772497940976e+00 1.012952612238632901e-18
4.047604430758538246e+08 1.000206957098880522e+00 1.871307639757809274e-18
4.110322126906284690e+08 1.000219911023652708e+00 3.426467862442862723e-18
4.174011634770658016e+08 1.000233683920262795e+00 6.219444788514798183e-18
4.238688012589931488e+08 1.000248328835038558e+00 1.119224758022028423e-17
4.304366551930025220e+08 1.000263902487635193e+00 1.997101903032278808e-17
4.371062781299918890e+08 1.000280465571466548e+00 3.533915196215423728e-17
4.438792469823092222e+08 1.000298083074689481e+00 6.202118088722260782e-17
4.507571630965847373e+08 1.000316824652365044e+00 1.079707970336338383e-16
4.577416526323405504e+08 1.000336764992585836e+00 1.864698327867400739e-16
4.648343669464669228e+08 1.000357984277807644e+00 3.195213208107008865e-16
4.720369829836559296e+08 1.000380568657787794e+00 5.432909050152427979e-16
4.793512036728846431e+08 1.000404610797526184e+00 9.167651651980561403e-16
4.867787583300423026e+08 1.000430210486911609e+00 1.535422992323163283e-15
4.943214030667957664e+08 1.000457475213478276e+00 2.552658645023998131e-15
5.019809212057906389e+08 1.000486520977698301e+00 4.213104268443246691e-15
5.097591237022857666e+08 1.000517473060733575e+00 6.904080833911892412e-15
5.176578495723209381e+08 1.000550466908677105e+00 1.123447020206473266e-14
5.256789663275194168e+08 1.000585649187047954e+00 1.815477257838568066e-14
5.338243704166270494e+08 1.000623178833636828e+00 2.913858176570652428e-14
5.420959876738939285e+08 1.000663228164667462e+00 4.645501846488712816e-14
5.504957737744028568e+08 1.000705984422644246e+00 7.357501555470391150e-14
5.590257146964536905e+08 1.000751651146875032e+00 1.157731678763361254e-13
5.676878271911146641e+08 1.000800449810937742e+00 1.810135518330011451e-13
5.764841592590348721e+08 1.000852621783017815e+00 2.812452908041415983e-13
5.854167906346831322e+08 1.000908430209120459e+00 4.342854152422132247e-13
5.944878332780287266e+08 1.000968162322803279e+00 6.665387093476926065e-13
6.036994318739138842e+08 1.001032131868402564e+00 1.016902814644107125e-12
6.130537643390874863e+08 1.001100681788256619e+00 1.542342039231412649e-12
