# T[K] Gamma_nTOp[1/tau_n] Gamma_pTOn[1/tau_n]
# fingerprint_hash: fc7ffb157018ebb0
# fingerprint: {"QED_corrections":true,"T_end_MeV":0.0001,"T_start_cosmo_MeV":40.0,"analytic_distortions":false,"delta_xi_nu":0.0,"finite_mass_corrections":false,"format_version":1,"incomplete_decoupling":false,"munuOverTnu":0.0,"nevo_file":null,"nevo_file_prefix":"NEVOPRIMAT","nevo_spectral_file":null,"opposite_neutrino_chemical_potential":false,"radiative_corrections":false,"sampling_nTOp_per_decade":80,"spectral_distortions":false,"y_SZ":0.0,"y_gray":0.0}
1.160451812155007152e+06 1.000000000004528600e+00 0.000000000000000000e+00
1.194423774848161964e+06 1.000000000003999245e+00 0.000000000000000000e+00
1.229390259017469129e+06 1.000000000003379075e+00 0.000000000000000000e+00
1.265380379052794306e+06 1.000000000002668754e+00 0.000000000000000000e+00
1.302424101661148015e+06 1.000000000001870282e+00 0.000000000000000000e+00
1.340552270818068646e+06 1.000000000000988543e+00 0.000000000000000000e+00
1.379796633449450601e+06 1.000000000000028644e+00 0.000000000000000000e+00
1.420189865865226369e+06 9.999999999989986899e-01 0.000000000000000000e+00
1.461765600966865197e+06 9.999999999979083398e-01 0.000000000000000000e+00
1.504558456251363736e+06 9.999999999967689179e-01 0.000000000000000000e+00
1.548604062635073205e+06 9.999999999955935248e-01 0.000000000000000000e+00
1.593939094121308997e+06 9.999999999943973705e-01 0.000000000000000000e+00
1.640601298336490057e+06 9.999999999931963313e-01 0.000000000000000000e+00
1.688629527960198000e+06 9.999999999920080596e-01 0.000000000000000000e+00
1.738063773075376172e+06 9.999999999908512072e-01 0.000000000000000000e+00
1.788945194465545705e+06 9.999999999897449809e-01 0.000000000000000000e+00
1.841316157886786154e+06 9.999999999887088098e-01 0.000000000000000000e+00
1.895220269343055319e+06 9.999999999877616785e-01 0.000000000000000000e+00
1.950702411394152790e+06 9.999999999869226830e-01 0.000000000000000000e+00
2.007808780526589602e+06 9.999999999862095867e-01 0.000000000000000000e+00
2.066586925618517678e+06 9.999999999856389321e-01 0.000000000000000000e+00
2.127085787530675530e+06 9.999999999852250410e-01 0.000000000000000000e+00
2.189355739856346976e+06 9.999999999849803478e-01 0.000000000000000000e+00
2.253448630864310078e+06 9.999999999849139565e-01 0.000000000000000000e+00
2.319417826669610105e+06 9.999999999850328614e-01 0.000000000000000000e+00
2.387318255668149795e+06 9.999999999853399490e-01 0.000000000000000000e+00
2.457206454272137024e+06 9.999999999858348865e-01 0.000000000000000000e+00
2.529140613984378055e+06 9.999999999865136768e-01 0.000000000000000000e+00
2.603180629850666504e+06 9.999999999873685486e-01 0.000000000000000000e+00
2.679388150330644567e+06 9.999999999883877333e-01 0.000000000000000000e+00
2.757826628628573846e+06 9.999999999895569092e-01 0.000000000000000000e+00
2.838561375526837073e+06 9.999999999908578685e-01 0.000000000000000000e+00
2.921659613766088616e+06 9.999999999922698501e-01 0.000000000000000000e+00
3.007190534017433412e+06 9.999999999937696504e-01 0.000000000000000000e+00
3.095225352493126877e+06 9.999999999953322893e-01 0.000000000000000000e+00
3.185837370243811514e+06 9.999999999969318987e-01 0.000000000000000000e+00
3.279102034191722516e+06 9.999999999985417221e-01 0.000000000000000000e+00
3.375096999950573780e+06 1.000000000000135447e+00 0.000000000000000000e+00
3.473902196484477259e+06 1.000000000001687983e+00 0.000000000000000000e+00
3.575599892659796868e+06 1.000000000003175016e+00 0.000000000000000000e+00
3.680274765745237935e+06 1.000000000004575451e+00 0.000000000000000000e+00
3.788013971917252522e+06 1.000000000005869971e+00 0.000000000000000000e+00
3.898907218829544261e+06 1.000000000007043477e+00 0.000000000000000000e+00
4.013046840306964237e+06 1.000000000008084422e+00 0.000000000000000000e+00
4.130527873226046562e+06 1.000000000008984591e+00 0.000000000000000000e+00
4.251448136646280065e+06 1.000000000009741319e+00 0.000000000000000000e+00
4.375908313257860020e+06 1.000000000010356160e+00 0.000000000000000000e+00
4.504012033213795163e+06 1.000000000010834444e+00 0.000000000000000000e+00
4.635865960416263901e+06 1.000000000011186385e+00 0.000000000000000000e+00
4.771579881328906864e+06 1.000000000011426637e+00 0.000000000000000000e+00
4.911266796389074065e+06 1.000000000011574075e+00 0.000000000000000000e+00
5.055043014096228406e+06 1.000000000011650458e+00 0.000000000000000000e+00
5.203028247854683548e+06 1.000000000011681545e+00 0.000000000000000000e+00
5.355345715651390143e+06 1.000000000011695089e+00 0.000000000000000000e+00
5.512122242651852779e+06 1.000000000011722623e+00 0.000000000000000000e+00
5.673488366799422540e+06 1.000000000011796120e+00 0.000000000000000000e+00
5.839578447506044991e+06 1.000000000011949552e+00 0.000000000000000000e+00
6.010530777524835430e+06 1.000000000012217782e+00 0.000000000000000000e+00
6.186487698097817600e+06 1.000000000012635670e+00 0.000000000000000000e+00
6.367595717474482954e+06 1.000000000013238077e+00 0.000000000000000000e+00
6.554005632899941877e+06 1.000000000014060086e+00 0.000000000000000000e+00
6.745872656174374744e+06 1.000000000015135893e+00 0.000000000000000000e+00
6.943356542888090014e+06 1.000000000016499024e+00 0.000000000000000000e+00
7.146621725439900532e+06 1.000000000018182345e+00 0.000000000000000000e+00
7.355837449949711561e+06 1.000000000020218494e+00 0.000000000000000000e+00
7.571177917179075070e+06 1.000000000022639890e+00 0.000000000000000000e+00
7.792822427577140741e+06 1.000000000025480063e+00 0.000000000000000000e+00
8.020955530572948977e+06 1.000000000028773206e+00 0.000000000000000000e+00
8.255767178238056600e+06 1.000000000032555736e+00 0.000000000000000000e+00
8.497452883447702974e+06 1.000000000036867620e+00 0.000000000000000000e+00
8.746213882672000676e+06 1.000000000041753045e+00 0.000000000000000000e+00
9.002257303532974795e+06 1.000000000047262860e+00 0.000000000000000000e+00
9.265796337266651914e+06 1.000000000053454130e+00 0.000000000000000000e+00
9.537050416233910248e+06 1.000000000060392802e+00 0.000000000000000000e+00
9.816245396628113464e+06 1.000000000068155925e+00 0.000000000000000000e+00
1.010361374653128162e+07 1.000000000076832762e+00 0.000000000000000000e+00
1.039939473947557062e+07 1.000000000086526120e+00 0.000000000000000000e+00
1.070383465367138945e+07 1.000000000097354791e+00 0.000000000000000000e+00
1.101718697706771642e+07 1.000000000109455112e+00 0.000000000000000000e+00
1.133971261841546744e+07 1.000000000122982735e+00 0.000000000000000000e+00
1.167168012450993806e+07 1.000000000138115519e+00 0.000000000000000000e+00
1.201336590379273519e+07 1.000000000155053970e+00 0.000000000000000000e+00
1.236505445649960823e+07 1.000000000174026349e+00 0.000000000000000000e+00
1.272703861154604144e+07 1.000000000195288452e+00 0.000000000000000000e+00
1.309961977034736983e+07 1.000000000219128049e+00 0.000000000000000000e+00
1.348310815777668729e+07 1.000000000245869103e+00 0.000000000000000000e+00
1.387782308046972565e+07 1.000000000275873324e+00 0.000000000000000000e+00
1.428409319269130938e+07 1.000000000309546611e+00 0.000000000000000000e+00
1.470225676998497546e+07 1.000000000347343043e+00 0.000000000000000000e+00
1.513266199083390087e+07 1.000000000389771992e+00 0.000000000000000000e+00
1.557566722656711750e+07 1.000000000437401892e+00 0.000000000000000000e+00
1.603164133975265734e+07 1.000000000490871344e+00 0.000000000000000000e+00
1.650096399132637493e+07 1.000000000550894663e+00 0.000000000000000000e+00
1.698402595671162382e+07 1.000000000618273432e+00 0.000000000000000000e+00
1.748122945119322836e+07 1.000000000693905600e+00 0.000000000000000000e+00
1.799298846481704339e+07 1.000000000778799469e+00 0.000000000000000000e+00
1.851972910709329695e+07 1.000000000874086137e+00 0.000000000000000000e+00
1.906188996179104224e+07 1.000000000981034809e+00 0.000000000000000000e+00
1.961992245211946219e+07 1.000000001101070346e+00 0.000000000000000000e+00
2.019429121659941226e+07 1.000000001235792135e+00 0.000000000000000000e+00
2.078547449593874440e+07 1.000000001386995852e+00 0.000000000000000000e+00
2.139396453123306111e+07 1.000000001556696327e+00 0.000000000000000000e+00
2.202026797382412851e+07 1.000000001747156420e+00 0.000000000000000000e+00
2.266490630715640634e+07 1.000000001960915874e+00 0.000000000000000000e+00
2.332841628098354116e+07 1.000000002200825078e+00 0.000000000000000000e+00
2.401135035828592256e+07 1.000000002470083249e+00 0.000000000000000000e+00
2.471427717527209967e+07 1.000000002772281738e+00 0.000000000000000000e+00
2.543778201484620571e+07 1.000000003111450653e+00 0.000000000000000000e+00
2.618246729393604398e+07 1.000000003492113931e+00 0.000000000000000000e+00
2.694895306508802250e+07 1.000000003919347957e+00 0.000000000000000000e+00
2.773787753274573386e+07 1.000000004398850839e+00 0.000000000000000000e+00
2.854989758464243636e+07 1.000000004937017017e+00 0.000000000000000000e+00
2.938568933875045553e+07 1.000000005541024084e+00 0.000000000000000000e+00
3.024594870624187589e+07 1.000000006218927151e+00 0.000000000000000000e+00
3.113139197092977539e+07 1.000000006979766765e+00 0.000000000000000000e+00
3.204275638567303866e+07 1.000000007833689475e+00 0.000000000000000000e+00
3.298080078624019027e+07 1.000000008792083284e+00 0.000000000000000000e+00
3.394630622314398736e+07 1.000000009867729300e+00 0.000000000000000000e+00
3.494007661197337508e+07 1.000000011074972495e+00 0.000000000000000000e+00
3.596293940276323259e+07 1.000000012429912433e+00 0.000000000000000000e+00
3.701574626895964146e+07 1.000000013950618882e+00 0.000000000000000000e+00
3.809937381655522436e+07 1.000000015657371844e+00 0.000000000000000000e+00
3.921472431398352981e+07 1.000000017572933109e+00 0.000000000000000000e+00
4.036272644338091463e+07 1.000000019722848466e+00 0.000000000000000000e+00
4.154433607384214550e+07 1.000000022135789424e+00 0.000000000000000000e+00
4.276053705731222034e+07 1.000000024843934909e+00 0.000000000000000000e+00
4.401234204777763784e+07 1.000000027883401588e+00 0.000000000000000000e+00
4.530079334444013983e+07 1.000000031294723701e+00 0.000000000000000000e+00
4.662696375957339257e+07 1.000000035123395081e+00 0.000000000000000000e+00
4.799195751178593934e+07 1.000000039420474662e+00 0.000000000000000000e+00
4.939691114543503523e+07 1.000000044243269492e+00 0.000000000000000000e+00
5.084299447695536911e+07 1.000000049656095902e+00 0.000000000000000000e+00
5.233141156889118254e+07 1.000000055731140813e+00 0.000000000000000000e+00
5.386340173244398832e+07 1.000000062549420754e+00 0.000000000000000000e+00
5.544024055936867744e+07 1.000000070201865654e+00 0.000000000000000000e+00
5.706324098407810181e+07 1.000000078790528546e+00 0.000000000000000000e+00
5.873375437684158981e+07 1.000000088429949141e+00 0.000000000000000000e+00
6.045317166898543388e+07 1.000000099248679719e+00 0.000000000000000000e+00
6.222292451103405654e+07 1.000000111390999757e+00 0.000000000000000000e+00
6.404448646475479007e+07 1.000000125018840613e+00 0.000000000000000000e+00
6.591937423010069132e+07 1.000000140313944463e+00 0.000000000000000000e+00
6.784914890807065368e+07 1.000000157480288587e+00 0.000000000000000000e+00
6.983541730054014921e+07 1.000000176746805636e+00 0.000000000000000000e+00
7.187983324814344943e+07 1.000000198370435633e+00 0.000000000000000000e+00
7.398409900732341409e+07 1.000000222639553904e+00 0.000000000000000000e+00
7.614996666769285500e+07 1.000000249877816438e+00 0.000000000000000000e+00
7.837923961088877916e+07 1.000000280448476220e+00 0.000000000000000000e+00
8.067377401213566959e+07 1.000000314759227349e+00 0.000000000000000000e+00
8.303548038576523960e+07 1.000000353267642694e+00 0.000000000000000000e+00
8.546632517598097026e+07 1.000000396487275678e+00 0.000000000000000000e+00
8.796833239419335127e+07 1.000000444994509463e+00 0.000000000000000000e+00
9.054358530428627133e+07 1.000000499436243473e+00 0.000000000000000000e+00
9.319422815721915662e+07 1.000000560538521155e+00 0.000000000000000000e+00
9.592246797641080618e+07 1.000000629116211570e+00 0.000000000000000000e+00
9.873057639538833499e+07 1.000000706083878255e+00 0.000000000000000000e+00
1.016208915492325127e+08 1.000000792467975019e+00 0.000000000000000000e+00
1.045958200213979483e+08 1.000000889420534556e+00 0.000000000000000000e+00
1.076578388475208879e+08 1.000000998234534366e+00 0.000000000000000000e+00
1.108094975778920650e+08 1.000001120361138085e+00 0.000000000000000000e+00
1.140534204003080726e+08 1.000001257429049994e+00 0.000000000000000000e+00
1.173923083250646591e+08 1.000001411266235207e+00 0.000000000000000000e+00
1.208289414339191765e+08 1.000001583924299497e+00 0.000000000000000000e+00
1.243661811948912442e+08 1.000001777705848527e+00 0.000000000000000000e+00
1.280069728448240012e+08 1.000001995195197058e+00 0.000000000000000000e+00
1.317543478416987956e+08 1.000002239292836048e+00 0.000000000000000000e+00
1.356114263887411058e+08 1.000002513254111713e+00 0.000000000000000000e+00
1.395814200324140787e+08 1.000002820732644127e+00 0.000000000000000000e+00
1.436676343364725709e+08 1.000003165829050911e+00 0.000000000000000000e+00
1.478734716342998445e+08 1.000003553145635493e+00 0.000000000000000000e+00
1.522024338618128896e+08 1.000003987847768894e+00 0.000000000000000000e+00
1.566581254733055234e+08 1.000004475732774623e+00 0.000000000000000000e+00
1.612442564426526427e+08 1.000005023307247942e+00 0.000000000000000000e+00
1.659646453523680866e+08 1.000005637873830455e+00 0.000000000000000000e+00
1.708232225730995834e+08 1.000006327628604863e+00 0.000000000000000000e+00
1.758240335362032056e+08 1.000007101770402862e+00 0.000000000000000000e+00
1.809712421021151841e+08 1.000007970623488784e+00 0.000000000000000000e+00
1.862691340273382664e+08 1.000008945775252123e+00 0.000000000000000000e+00
1.917221205329236984e+08 1.000010040230747910e+00 0.000000000000000000e+00
1.973347419774128497e+08 1.000011268586143531e+00 0.000000000000000000e+00
2.031116716373098791e+08 1.000012647223395446e+00 0.000000000000000000e+00
2.090577195982275307e+08 1.000014194528721312e+00 0.000000000000000000e+00
2.151778367599376738e+08 1.000015931137844261e+00 0.000000000000000000e+00
2.214771189586761594e+08 1.000017880211213628e+00 0.000000000000000000e+00
2.279608112101274729e+08 1.000020067742927177e+00 0.000000000000000000e+00
2.346343120766140223e+08 1.000022522907463740e+00 0.000000000000000000e+00
2.415031781621412933e+08 1.000025278448881005e+00 0.000000000000000000e+00
2.485731287390354574e+08 1.000028371117698933e+00 0.000000000000000000e+00
2.558500505100153685e+08 1.000031842161359874e+00 2.421075453527752169e-28
2.633400025096821785e+08 1.000035737874926500e+00 1.388771046878839548e-27
2.710492211494992375e+08 1.000040110219546863e+00 7.595049528341264130e-27
2.789841254104528427e+08 1.000045017517214418e+00 3.965432296873087705e-26
2.871513221877367496e+08 1.000050525231688248e+00 1.979137622474462709e-25
2.955576117919012904e+08 1.000056706846786492e+00 9.454448944686969001e-25
3.042099936110370755e+08 1.000063644854829903e+00 4.328173151659192555e-24
3.131156719387277365e+08 1.000071431870968919e+00 1.901075017865516117e-23
3.222820619726160765e+08 1.000080171891205127e+00 8.020902746903298976e-23
3.317167959885642529e+08 1.000089981713964793e+00 3.254357896558598629e-22
3.414277296955730319e+08 1.000100992554064039e+00 1.271159850115177161e-21
3.514229487767407298e+08 1.000113351879729162e+00 4.785078301641870767e-21
3.617107756216938496e+08 1.000127225503105732e+00 1.737721319845521124e-20
3.722997762561208606e+08 1.000142799987338682e+00 6.094092381007616499e-20
3.831987674741675258e+08 1.000160285426178630e+00 2.065852794574210206e-19
3.944168241796168089e+08 1.000179918633858467e+00 6.775839463472559960e-19
4.059632869419945478e+08 1.000201966906515194e+00 2.152291903523451206e-18
4.178477697738785744e+08 1.000226732446463984e+00 6.626803234137889606e-18
4.300801681358719468e+08 1.000254557478675643e+00 1.979484587872290439e-17
4.426706671759345531e+08 1.000285830467385173e+00 5.741378605632895440e-17
4.556297502099201679e+08 1.000320993569312034e+00 1.618297668368653312e-16
4.689682074503630400e+08 1.000360551237891915e+00 4.436413806753891752e-16
4.826971449908131361e+08 1.000405081055192547e+00 1.183811399098964007e-15
4.968279940531876683e+08 1.000455246855531666e+00 3.077146516733837141e-15
5.113725205058177710e+08 1.000511813623337742e+00 7.797571258866207280e-15
5.263428346601520181e+08 1.000575667155320314e+00 1.927702911500673071e-14
5.417514013542568684e+08 1.000647837159208242e+00 4.652735009089716893e-14
5.576110503314876556e+08 1.000729523943408417e+00 1.097171216751797814e-13
5.739349869230254889e+08 1.000822134432472144e+00 2.529553948317532525e-13
5.907368030431095362e+08 1.000927320788835617e+00 5.705780429280743469e-13
6.080304885061746836e+08 1.001047031524470610e+00 1.260027518837418224e-12
6.258304426752967834e+08 1.001183571384139048e+00 2.725994853312820541e-12
6.441514864516215324e+08 1.001339670254961733e+00 5.781334307023850310e-12
6.630088746148020029e+08 1.001518573593165096e+00 1.202711743016555580e-11
6.824183085247018337e+08 1.001724139389802870e+00 2.455775359656298307e-11
7.023959491949106455e+08 1.001960962714027126e+00 4.924528295239968049e-11
7.229584307490235567e+08 1.002234523803710919e+00 9.703701164631556354e-11
7.441228742708098888e+08 1.002551344979737191e+00 1.879933295859485517e-10
7.659069020598695278e+08 1.002919204860289071e+00 3.582672769527361333e-10
7.883286523046215773e+08 1.003347371019494449e+00 6.719685339320066334e-10
8.114067941848138571e+08 1.003846865607878946e+00 1.241003175188967689e-09
8.351605434161820412e+08 1.004430787899511568e+00 2.257733120148186161e-09
8.596096782501769066e+08 1.005114690450112924e+00 4.047909734233646623e-09
8.847745559420487881e+08 1.005917003456790804e+00 7.155145884608347164e-09
9.106761297010622025e+08 1.006859534791748390e+00 1.247370582822501244e-08
9.373359661369252205e+08 1.007968037060364086e+00 2.145411011963090351e-08
9.647762632169255018e+08 1.009272852704495627e+00 3.641673061376088198e-08
9.930198687487908602e+08 1.010809680969700253e+00 6.102325335682105417e-08
1.022090299404632449e+09 1.012620451721692572e+00 1.009752006152384374e-07
1.052011760301773071e+09 1.014754224501503765e+00 1.650325206082322029e-07
1.082809165156836033e+09 1.017268432379653698e+00 2.664819453827723915e-07
1.114508157029842138e+09 1.020230013188141660e+00 4.252164307928988189e-07
1.147135129675544500e+09 1.023716915339664135e+00 6.706477042956229914e-07
1.180717249519859791e+09 1.027819719665060916e+00 1.045725999897203317e-06
1.215282478279654264e+09 1.032643461448705224e+00 1.612416216866983928e-06
1.250859596244677782e+09 1.038309689127817403e+00 2.459065740873368169e-06
1.287478226241111994e+09 1.044958796796086054e+00 3.710202644527310964e-06
1.325168858296648741e+09 1.052752663671863598e+00 5.539427191550451898e-06
1.363962875027585745e+09 1.061877652807188044e+00 8.186214048817867697e-06
1.403892577769169807e+09 1.072547875579649812e+00 1.197761096629978663e-05
1.444991213470902681e+09 1.085008912685790250e+00 1.735607177574054433e-05
1.487293002379149437e+09 1.099542054329333718e+00 2.491498232617641150e-05
1.530833166530198097e+09 1.116469098908222213e+00 3.544387823254429768e-05
1.575647959077452183e+09 1.136157522770693484e+00 4.998575428977203045e-05
1.621774694477110863e+09 1.159026398940189218e+00 6.990979370409501278e-05
1.669251779557586193e+09 1.185553181824379188e+00 9.700381134293191855e-05
1.718118745498470783e+09 1.216281367785666756e+00 1.335919930416651629e-04
1.768416280745623112e+09 1.251828708581267602e+00 1.826849745822811298e-04
1.820186264889892578e+09 1.292896664408166751e+00 2.481720515517197700e-04
1.873471803537642002e+09 1.340281336410332980e+00 3.350681612502532736e-04
1.928317264202027798e+09 1.394885795651468863e+00 4.498317246864227785e-04
1.984768313245055676e+09 1.457733264598228606e+00 6.007733139839435297e-04
