# T[K] Gamma_nTOp[1/tau_n] Gamma_pTOn[1/tau_n]
# fingerprint_hash: cca11c96c103c64b
# fingerprint: {"QED_corrections":true,"T_end_MeV":0.001,"T_start_cosmo_MeV":100.0,"analytic_distortions":false,"delta_xi_nu":0.0,"finite_mass_corrections":true,"format_version":1,"incomplete_decoupling":false,"munuOverTnu":0.05,"nevo_file":null,"nevo_file_prefix":"NEVOPRIMAT","nevo_spectral_file":null,"radiative_corrections":false,"sampling_nTOp_per_decade":150,"spectral_distortions":false,"y_SZ":0.0,"y_gray":0.0}
1.160451812155007198e+07 9.999983997670117697e-01 0.000000000000000000e+00
1.178433031761291809e+07 9.999983750282224193e-01 0.000000000000000000e+00
1.196692870656324737e+07 9.999983499089604155e-01 0.000000000000000000e+00
1.215235646050493419e+07 9.999983244034849061e-01 0.000000000000000000e+00
1.234065742049430311e+07 9.999982985059712171e-01 0.000000000000000000e+00
1.253187610690555163e+07 9.999982722105098532e-01 0.000000000000000000e+00
1.272605772995679639e+07 9.999982455111062762e-01 0.000000000000000000e+00
1.292324820039921999e+07 9.999982184016792397e-01 0.000000000000000000e+00
1.312349414037183113e+07 9.999981908760603444e-01 0.000000000000000000e+00
1.332684289442444220e+07 9.999981629279925954e-01 0.000000000000000000e+00
1.353334254071142524e+07 9.999981345511299580e-01 0.000000000000000000e+00
1.374304190235893987e+07 9.999981057390371353e-01 0.000000000000000000e+00
1.395599055900826678e+07 9.999980764851876813e-01 0.000000000000000000e+00
1.417223885853803717e+07 9.999980467829635566e-01 0.000000000000000000e+00
1.439183792896807566e+07 9.999980166256555725e-01 0.000000000000000000e+00
1.461483969054769725e+07 9.999979860064609483e-01 0.000000000000000000e+00
1.484129686803135276e+07 9.999979549184841998e-01 0.000000000000000000e+00
1.507126300314432755e+07 9.999979233547358071e-01 0.000000000000000000e+00
1.530479246724189445e+07 9.999978913081312148e-01 0.000000000000000000e+00
1.554194047416432761e+07 9.999978587714918321e-01 0.000000000000000000e+00
1.578276309329124913e+07 9.999978257375422563e-01 0.000000000000000000e+00
1.602731726279822551e+07 9.999977921989121610e-01 0.000000000000000000e+00
1.627566080311877280e+07 9.999977581481335198e-01 0.000000000000000000e+00
1.652785243061496504e+07 9.999977235776418283e-01 0.000000000000000000e+00
1.678395177145985141e+07 9.999976884797751042e-01 0.000000000000000000e+00
1.704401937573499978e+07 9.999976528467729997e-01 0.000000000000000000e+00
1.730811673174647242e+07 9.999976166707772451e-01 0.000000000000000000e+00
1.757630628056262806e+07 9.999975799438304280e-01 0.000000000000000000e+00
1.784865143077719212e+07 9.999975426578767701e-01 0.000000000000000000e+00
1.812521657350106537e+07 9.999975048047604620e-01 0.000000000000000000e+00
1.840606709758647159e+07 9.999974663762261073e-01 0.000000000000000000e+00
1.869126940508694202e+07 9.999974273639192779e-01 0.000000000000000000e+00
1.898089092695691064e+07 9.999973877593849592e-01 0.000000000000000000e+00
1.927500013899453729e+07 9.999973475540684387e-01 0.000000000000000000e+00
1.957366657803158462e+07 9.999973067393147508e-01 0.000000000000000000e+00
1.987696085837414861e+07 9.999972653063694539e-01 0.000000000000000000e+00
2.018495468849814311e+07 9.999972232463777422e-01 0.000000000000000000e+00
2.049772088800346479e+07 9.999971805503858890e-01 0.000000000000000000e+00
2.081533340483090654e+07 9.999971372093404698e-01 0.000000000000000000e+00
2.113786733274578676e+07 9.999970932140899160e-01 0.000000000000000000e+00
2.146539892909253761e+07 9.999970485553841826e-01 0.000000000000000000e+00
2.179800563282437995e+07 9.999970032238758577e-01 0.000000000000000000e+00
2.213576608281236142e+07 9.999969572101214954e-01 0.000000000000000000e+00
2.247876013643810898e+07 9.999969105045815043e-01 0.000000000000000000e+00
2.282706888847468048e+07 9.999968630976227013e-01 0.000000000000000000e+00
2.318077469025994465e+07 9.999968149795187555e-01 0.000000000000000000e+00
2.353996116916708648e+07 9.999967661404511876e-01 0.000000000000000000e+00
2.390471324837678671e+07 9.999967165705131444e-01 0.000000000000000000e+00
2.427511716695579141e+07 9.999966662597088440e-01 0.000000000000000000e+00
2.465126050024658069e+07 9.999966151979579054e-01 0.000000000000000000e+00
2.503323218057302758e+07 9.999965633750962368e-01 0.000000000000000000e+00
2.542112251826666296e+07 9.999965107808789222e-01 0.000000000000000000e+00
2.581502322301920131e+07 9.999964574049842181e-01 0.000000000000000000e+00
2.621502742556547374e+07 9.999964032370153300e-01 0.000000000000000000e+00
2.662122969970256090e+07 9.999963482665044090e-01 0.000000000000000000e+00
2.703372608465004340e+07 9.999962924829162159e-01 0.000000000000000000e+00
2.745261410775677487e+07 9.999962358756530056e-01 0.000000000000000000e+00
2.787799280755945295e+07 9.999961784340570814e-01 0.000000000000000000e+00
2.830996275719850883e+07 9.999961201474181216e-01 0.000000000000000000e+00
2.874862608819680288e+07 9.999960610049756227e-01 0.000000000000000000e+00
2.919408651460680366e+07 9.999960009959271146e-01 0.000000000000000000e+00
2.964644935753189772e+07 9.999959401094318245e-01 0.000000000000000000e+00
3.010582157002766803e+07 9.999958783346190039e-01 0.000000000000000000e+00
3.057231176238903776e+07 9.999958156605934789e-01 0.000000000000000000e+00
3.104603022782918811e+07 9.999957520764441998e-01 0.000000000000000000e+00
3.152708896855644137e+07 9.999956875712522342e-01 0.000000000000000000e+00
3.201560172225513682e+07 9.999956221340976503e-01 0.000000000000000000e+00
3.251168398897688091e+07 9.999955557540715079e-01 0.000000000000000000e+00
3.301545305844844505e+07 9.999954884202836292e-01 0.000000000000000000e+00
3.352702803780281544e+07 9.999954201218735905e-01 0.000000000000000000e+00
3.404652987973993272e+07 9.999953508480226017e-01 0.000000000000000000e+00
3.457408141112377495e+07 9.999952805879656070e-01 0.000000000000000000e+00
3.510980736202257872e+07 9.999952093310032764e-01 0.000000000000000000e+00
3.565383439519898593e+07 9.999951370665165484e-01 0.000000000000000000e+00
3.620629113605720550e+07 9.999950637839812861e-01 0.000000000000000000e+00
3.676730820305417478e+07 9.999949894729841526e-01 0.000000000000000000e+00
3.733701823858191818e+07 9.999949141232382654e-01 0.000000000000000000e+00
3.791555594032848626e+07 9.999948377246026254e-01 0.000000000000000000e+00
3.850305809312484413e+07 9.999947602671005464e-01 0.000000000000000000e+00
3.909966360128491372e+07 9.999946817409386401e-01 0.000000000000000000e+00
3.970551352144742757e+07 9.999946021365306859e-01 0.000000000000000000e+00
4.032075109592594206e+07 9.999945214445186137e-01 0.000000000000000000e+00
4.094552178657598794e+07 9.999944396557982618e-01 0.000000000000000000e+00
4.157997330918689817e+07 9.999943567615445783e-01 0.000000000000000000e+00
4.222425566840653867e+07 9.999942727532395992e-01 0.000000000000000000e+00
4.287852119320724159e+07 9.999941876227016468e-01 0.000000000000000000e+00
4.354292457290121913e+07 9.999941013621170827e-01 0.000000000000000000e+00
4.421762289371407777e+07 9.999940139640725034e-01 0.000000000000000000e+00
4.490277567592503130e+07 9.999939254215913786e-01 0.000000000000000000e+00
4.559854491158261150e+07 9.999938357281703549e-01 0.000000000000000000e+00
4.630509510280475020e+07 9.999937448778198901e-01 0.000000000000000000e+00
4.702259330067235976e+07 9.999936528651062195e-01 0.000000000000000000e+00
4.775120914472556859e+07 9.999935596851958763e-01 0.000000000000000000e+00
4.849111490307190269e+07 9.999934653339040969e-01 0.000000000000000000e+00
4.924248551311602443e+07 9.999933698077450028e-01 0.000000000000000000e+00
5.000549862292049825e+07 9.999932731039854472e-01 0.000000000000000000e+00
5.078033463320748508e+07 9.999931752207019686e-01 0.000000000000000000e+00
5.156717674001127481e+07 9.999930761568412985e-01 0.000000000000000000e+00
5.236621097799165547e+07 9.999929759122843098e-01 0.000000000000000000e+00
5.317762626441849768e+07 9.999928744879147402e-01 0.000000000000000000e+00
5.400161444383779913e+07 9.999927718856905789e-01 0.000000000000000000e+00
5.483837033342991769e+07 9.999926681087214497e-01 0.000000000000000000e+00
5.568809176907058060e+07 9.999925631613492127e-01 0.000000000000000000e+00
5.655097965210559964e+07 9.999924570492347842e-01 0.000000000000000000e+00
5.742723799685039371e+07 9.999923497794493965e-01 0.000000000000000000e+00
5.831707397882549465e+07 9.999922413605704108e-01 0.000000000000000000e+00
5.922069798373948038e+07 9.999921318027855666e-01 0.000000000000000000e+00
6.013832365723089874e+07 9.999920211180016727e-01 0.000000000000000000e+00
6.107016795538090169e+07 9.999919093199589604e-01 0.000000000000000000e+00
6.201645119600865245e+07 9.999917964243548729e-01 0.000000000000000000e+00
6.297739711076147109e+07 9.999916824489737399e-01 0.000000000000000000e+00
6.395323289801218361e+07 9.999915674138225574e-01 0.000000000000000000e+00
6.494418927657606453e+07 9.999914513412802020e-01 0.000000000000000000e+00
6.595050054026017338e+07 9.999913342562486429e-01 0.000000000000000000e+00
6.697240461325791478e+07 9.999912161863194759e-01 0.000000000000000000e+00
6.801014310640202463e+07 9.999910971619460076e-01 0.000000000000000000e+00
6.906396137428861856e+07 9.999909772166279964e-01 0.000000000000000000e+00
7.013410857328766584e+07 9.999908563871063860e-01 0.000000000000000000e+00
7.122083772045093775e+07 9.999907347135714719e-01 0.000000000000000000e+00
7.232440575333356857e+07 9.999906122398808384e-01 0.000000000000000000e+00
7.344507359074223042e+07 9.999904890137917279e-01 0.000000000000000000e+00
7.458310619442476332e+07 9.999903650872082883e-01 0.000000000000000000e+00
7.573877263171552122e+07 9.999902405164411423e-01 0.000000000000000000e+00
7.691234613915163279e+07 9.999901153624857209e-01 0.000000000000000000e+00
7.810410418707470596e+07 9.999899896913138075e-01 0.000000000000000000e+00
7.931432854523386061e+07 9.999898635741857333e-01 0.000000000000000000e+00
8.054330534940499067e+07 9.999897370879778924e-01 0.000000000000000000e+00
8.179132516904246807e+07 9.999896103155336835e-01 0.000000000000000000e+00
8.305868307597909868e+07 9.999894833460313270e-01 0.000000000000000000e+00
8.434567871419046819e+07 9.999893562753779941e-01 0.000000000000000000e+00
8.565261637064042687e+07 9.999892292066232535e-01 0.000000000000000000e+00
8.697980504722426832e+07 9.999891022504010518e-01 0.000000000000000000e+00
8.832755853382664919e+07 9.999889755253946744e-01 0.000000000000000000e+00
8.969619548251155019e+07 9.999888491588327932e-01 0.000000000000000000e+00
9.108603948286184669e+07 9.999887232870129372e-01 0.000000000000000000e+00
9.249741913848623633e+07 9.999885980558576026e-01 0.000000000000000000e+00
9.393066814471167326e+07 9.999884736215018943e-01 0.000000000000000000e+00
9.538612536747957766e+07 9.999883501509194694e-01 0.000000000000000000e+00
9.686413492346459627e+07 9.999882278225826759e-01 0.000000000000000000e+00
9.836504626143486798e+07 9.999881068271645468e-01 0.000000000000000000e+00
9.988921424487280846e+07 9.999879873682810949e-01 0.000000000000000000e+00
1.014369992358764559e+08 9.999878696632807928e-01 0.000000000000000000e+00
1.030087671803597659e+08 9.999877539440782392e-01 0.000000000000000000e+00
1.046048896945751756e+08 9.999876404580405609e-01 0.000000000000000000e+00
1.062257441529747695e+08 9.999875294689244409e-01 0.000000000000000000e+00
1.078717137774338573e+08 9.999874212578727661e-01 0.000000000000000000e+00
1.095431877278568894e+08 9.999873161244671183e-01 0.000000000000000000e+00
1.112405611941873878e+08 9.999872143878486552e-01 0.000000000000000000e+00
1.129642354898433983e+08 9.999871163879001656e-01 0.000000000000000000e+00
1.147146181466008723e+08 9.999870224865042845e-01 0.000000000000000000e+00
1.164921230109472573e+08 9.999869330688766489e-01 0.000000000000000000e+00
1.182971703419280052e+08 9.999868485449759925e-01 0.000000000000000000e+00
1.201301869105092436e+08 9.999867693510036126e-01 0.000000000000000000e+00
1.219916061004801840e+08 9.999866959509903230e-01 0.000000000000000000e+00
1.238818680109188110e+08 9.999866288384804403e-01 0.000000000000000000e+00
1.258014195602454841e+08 9.999865685383156899e-01 0.000000000000000000e+00
1.277507145918886960e+08 9.999865156085303575e-01 0.000000000000000000e+00
1.297302139815881997e+08 9.999864706423556848e-01 0.000000000000000000e+00
1.317403857463608384e+08 9.999864342703506104e-01 0.000000000000000000e+00
1.337817051551546305e+08 9.999864071626565210e-01 0.000000000000000000e+00
1.358546548412176967e+08 9.999863900313931131e-01 0.000000000000000000e+00
1.379597249162081480e+08 9.999863836331949196e-01 0.000000000000000000e+00
1.400974130860720873e+08 9.999863887719037114e-01 0.000000000000000000e+00
1.422682247687174082e+08 9.999864063014232141e-01 0.000000000000000000e+00
1.444726732135106027e+08 9.999864371287475739e-01 0.000000000000000000e+00
1.467112796226254404e+08 9.999864822171716794e-01 0.000000000000000000e+00
1.489845732742717564e+08 9.999865425896982130e-01 0.000000000000000000e+00
1.512930916478338540e+08 9.999866193326494290e-01 0.000000000000000000e+00
1.536373805509477854e+08 9.999867135994990885e-01 0.000000000000000000e+00
1.560179942485477626e+08 9.999868266149387619e-01 0.000000000000000000e+00
1.584354955939120650e+08 9.999869596791864934e-01 0.000000000000000000e+00
1.608904561617396772e+08 9.999871141725631407e-01 0.000000000000000000e+00
1.633834563832888305e+08 9.999872915603427170e-01 0.000000000000000000e+00
1.659150856836094260e+08 9.999874933978993852e-01 0.000000000000000000e+00
1.684859426209020317e+08 9.999877213361678674e-01 0.000000000000000000e+00
1.710966350280363262e+08 9.999879771274359230e-01 0.000000000000000000e+00
1.737477801562620401e+08 9.999882626314906542e-01 0.000000000000000000e+00
1.764400048211470246e+08 9.999885798221382904e-01 0.000000000000000000e+00
1.791739455507765412e+08 9.999889307941211003e-01 0.000000000000000000e+00
1.819502487362487614e+08 9.999893177704591851e-01 0.000000000000000000e+00
1.847695707845024765e+08 9.999897431102374723e-01 0.000000000000000000e+00
1.876325782735125422e+08 9.999902093168686612e-01 0.000000000000000000e+00
1.905399481098903120e+08 9.999907190468626528e-01 0.000000000000000000e+00
1.934923676889261007e+08 9.999912751191307736e-01 0.000000000000000000e+00
1.964905350571113229e+08 9.999918805248591003e-01 0.000000000000000000e+00
1.995351590771790445e+08 9.999925384379908522e-01 0.000000000000000000e+00
2.026269595957019329e+08 9.999932522263283996e-01 0.000000000000000000e+00
2.057666676132869124e+08 9.999940254633561398e-01 0.000000000000000000e+00
2.089550254574079216e+08 9.999948619407492689e-01 0.000000000000000000e+00
2.121927869579117596e+08 9.999957656816671481e-01 0.000000000000000000e+00
2.154807176252569854e+08 9.999967409548600195e-01 0.000000000000000000e+00
2.188195948314920366e+08 9.999977922896389204e-01 0.000000000000000000e+00
2.222102079940649271e+08 9.999989244917665276e-01 0.000000000000000000e+00
2.256533587624525726e+08 1.000000142660324887e+00 0.000000000000000000e+00
2.291498612077109218e+08 1.000001452205616204e+00 0.000000000000000000e+00
2.327005420149325728e+08 1.000002858868169531e+00 0.000000000000000000e+00
2.363062406787165999e+08 1.000004368738913074e+00 0.000000000000000000e+00
2.399678097016378045e+08 1.000005988280591618e+00 0.000000000000000000e+00
2.436861147958159745e+08 1.000007724350503446e+00 0.000000000000000000e+00
2.474620350875932574e+08 1.000009584224639703e+00 0.000000000000000000e+00
2.512964633253887594e+08 1.000011575623315441e+00 7.641270899050396156e-29
2.551903060907726884e+08 1.000013706738386965e+00 1.982122298702137076e-28
2.591444840128114223e+08 1.000015986262150491e+00 5.070205069040661565e-28
2.631599319857335687e+08 1.000018423418039815e+00 1.279211717940596536e-27
2.672375993899689615e+08 1.000021027993228895e+00 3.183987412354826126e-27
2.713784503166126013e+08 1.000023810373267930e+00 7.819897367962063269e-27
2.755834637953664660e+08 1.000026781578875257e+00 1.895479002827160564e-26
2.798536340260137916e+08 1.000029953305042740e+00 4.535353882813961286e-26
2.841899706134794354e+08 1.000033337962597635e+00 1.071426517454930999e-25
2.885934988065328598e+08 1.000036948722393015e+00 2.499516643582319482e-25
2.930652597401899099e+08 1.000040799562312177e+00 5.759360157530289546e-25
2.976063106818702817e+08 1.000044905317206245e+00 1.310985433575796032e-24
3.022177252813694477e+08 1.000049281732140694e+00 2.948536649354964117e-24
3.069005938247038126e+08 1.000053945519014498e+00 6.553580095653628483e-24
3.116560234918893576e+08 1.000058914416924960e+00 1.439763907911679851e-23
3.164851386187142134e+08 1.000064207256451398e+00 3.126947035480677837e-23
3.213890809625677466e+08 1.000069844028164123e+00 6.714924771360686668e-23
3.263690099723885655e+08 1.000075845955890941e+00 1.426023962174164039e-22
3.314261030627954006e+08 1.000082235574916156e+00 2.995367214795008213e-22
3.365615558924655318e+08 1.000089036815777765e+00 6.224182540129285968e-22
3.417765826468266249e+08 1.000096275093131482e+00 1.279657953918141154e-21
3.470724163251295090e+08 1.000103977402065691e+00 2.603478957294014517e-21
3.524503090319680572e+08 1.000112172420771550e+00 5.242410767853151164e-21
3.579115322733171582e+08 1.000120890620992409e+00 1.044941575841686340e-20
3.634573772571575642e+08 1.000130164387482257e+00 2.062068732894496945e-20
3.690891551987583041e+08 1.000140028143864157e+00 4.029300108559666612e-20
3.748081976306903362e+08 1.000150518492149088e+00 7.797145974801092239e-20
3.806158567176433802e+08 1.000161674361811137e+00 1.494460920953695067e-19
3.865135055761207938e+08 1.000173537171866300e+00 2.837518283993712350e-19
3.925025385990885496e+08 1.000186151003787494e+00 5.337764821513983224e-19
3.985843717856540680e+08 1.000199562791415753e+00 9.949641516098245557e-19
4.047604430758538246e+08 1.000213822529085528e+00 1.837986767956945249e-18
4.110322126906284690e+08 1.000228983495327517e+00 3.365295121218363742e-18
4.174011634770658016e+08 1.000245102506696515e+00 6.108124055069012099e-18
4.238688012589931488e+08 1.000262240171723160e+00 1.099141823100969969e-17
4.304366551930025220e+08 1.000280461192222470e+00 1.961179364372292115e-17
4.371062781299918890e+08 1.000299834691694700e+00 3.470198891973531949e-17
4.438792469823092222e+08 1.000320434564402339e+00 6.090037052599196193e-17
4.507571630965847373e+08 1.000342339882087428e+00 1.060152631055981114e-16
4.577416526323405504e+08 1.000365635287816746e+00 1.830852654333900471e-16
4.648343669464669228e+08 1.000390411499954002e+00 3.137096917326268077e-16
4.720369829836559296e+08 1.000416765823306520e+00 5.333893988883047558e-16
4.793512036728846431e+08 1.000444802743884365e+00 9.000248179418602212e-16
4.867787583300423026e+08 1.000474634589948897e+00 1.507333867787859362e-15
4.943214030667957664e+08 1.000506382139697781e+00 2.505877321748240500e-15
5.019809212057906389e+08 1.000540175511809293e+00 4.135761987501853836e-15
5.097591237022857666e+08 1.000576154987129707e+00 6.777134329435539011e-15
5.176578495723209381e+08 1.000614471958620078e+00 1.102758356156950756e-14
5.256789663275194168e+08 1.000655290071860382e+00 1.781996107098170817e-14
5.338243704166270494e+08 1.000698786348714675e+00 2.860047011444055312e-14
5.420959876738939285e+08 1.000745152359744150e+00 4.559601335312841659e-14
5.504957737744028568e+08 1.000794595905395878e+00 7.221288899950699945e-14
5.590257146964536905e+08 1.000847342466227863e+00 1.136273932750958159e-13
5.676878271911146641e+08 1.000903636950388309e+00 1.776550794462006104e-13
5.764841592590348721e+08 1.000963745800450333e+00 2.760220944021768479e-13
5.854167906346831322e+08 1.001027958984139321e+00 4.262128196713018613e-13
5.944878332780287266e+08 1.001096592462535018e+00 6.541388347040237217e-13
6.036994318739138842e+08 1.001169990762667439e+00 9.979709580595537016e-13
6.130537643390874863e+08 1.001248529829731337e+00 1.513608773330014381e-12
