# T[K] Gamma_nTOp[1/tau_n] Gamma_pTOn[1/tau_n]
# fingerprint_hash: 2aefe37bb5bfb2fe
# fingerprint: {"QED_corrections":true,"T_end_MeV":0.001,"T_start_cosmo_MeV":100.0,"analytic_distortions":false,"delta_xi_nu":0.0,"finite_mass_corrections":false,"format_version":1,"incomplete_decoupling":false,"munuOverTnu":-0.05,"nevo_file":null,"nevo_file_prefix":"NEVOPRIMAT","nevo_spectral_file":null,"radiative_corrections":false,"sampling_nTOp_per_decade":150,"spectral_distortions":false,"y_SZ":0.0,"y_gray":0.0}
1.160451812155007198e+07 9.999999985183372075e-01 0.000000000000000000e+00
1.178433031761291809e+07 9.999999984506141582e-01 0.000000000000000000e+00
1.196692870656324737e+07 9.999999983798230074e-01 0.000000000000000000e+00
1.215235646050493419e+07 9.999999983058280861e-01 0.000000000000000000e+00
1.234065742049430311e+07 9.999999982284880629e-01 0.000000000000000000e+00
1.253187610690555163e+07 9.999999981476563882e-01 0.000000000000000000e+00
1.272605772995679639e+07 9.999999980631790741e-01 0.000000000000000000e+00
1.292324820039921999e+07 9.999999979748968038e-01 0.000000000000000000e+00
1.312349414037183113e+07 9.999999978826421554e-01 0.000000000000000000e+00
1.332684289442444220e+07 9.999999977862417122e-01 0.000000000000000000e+00
1.353334254071142524e+07 9.999999976855141748e-01 0.000000000000000000e+00
1.374304190235893987e+07 9.999999975802702501e-01 0.000000000000000000e+00
1.395599055900826678e+07 9.999999974703130956e-01 0.000000000000000000e+00
1.417223885853803717e+07 9.999999973554372090e-01 0.000000000000000000e+00
1.439183792896807566e+07 9.999999972354284283e-01 0.000000000000000000e+00
1.461483969054769725e+07 9.999999971100633767e-01 0.000000000000000000e+00
1.484129686803135276e+07 9.999999969791095733e-01 0.000000000000000000e+00
1.507126300314432755e+07 9.999999968423242125e-01 0.000000000000000000e+00
1.530479246724189445e+07 9.999999966994546075e-01 0.000000000000000000e+00
1.554194047416432761e+07 9.999999965502374133e-01 0.000000000000000000e+00
1.578276309329124913e+07 9.999999963943982939e-01 0.000000000000000000e+00
1.602731726279822551e+07 9.999999962316513669e-01 0.000000000000000000e+00
1.627566080311877280e+07 9.999999960616989814e-01 0.000000000000000000e+00
1.652785243061496504e+07 9.999999958842309411e-01 0.000000000000000000e+00
1.678395177145985141e+07 9.999999956989247263e-01 0.000000000000000000e+00
1.704401937573499978e+07 9.999999955054439393e-01 0.000000000000000000e+00
1.730811673174647242e+07 9.999999953034393041e-01 0.000000000000000000e+00
1.757630628056262806e+07 9.999999950925462233e-01 0.000000000000000000e+00
1.784865143077719212e+07 9.999999948723861110e-01 0.000000000000000000e+00
1.812521657350106537e+07 9.999999946425647268e-01 0.000000000000000000e+00
1.840606709758647159e+07 9.999999944026721765e-01 0.000000000000000000e+00
1.869126940508694202e+07 9.999999941522821345e-01 0.000000000000000000e+00
1.898089092695691064e+07 9.999999938909509556e-01 0.000000000000000000e+00
1.927500013899453729e+07 9.999999936182180083e-01 0.000000000000000000e+00
1.957366657803158462e+07 9.999999933336036761e-01 0.000000000000000000e+00
1.987696085837414861e+07 9.999999930366102463e-01 0.000000000000000000e+00
2.018495468849814311e+07 9.999999927267199107e-01 0.000000000000000000e+00
2.049772088800346479e+07 9.999999924033947662e-01 0.000000000000000000e+00
2.081533340483090654e+07 9.999999920660767039e-01 0.000000000000000000e+00
2.113786733274578676e+07 9.999999917141851880e-01 0.000000000000000000e+00
2.146539892909253761e+07 9.999999913471184776e-01 0.000000000000000000e+00
2.179800563282437995e+07 9.999999909642504070e-01 0.000000000000000000e+00
2.213576608281236142e+07 9.999999905649327170e-01 0.000000000000000000e+00
2.247876013643810898e+07 9.999999901484910581e-01 0.000000000000000000e+00
2.282706888847468048e+07 9.999999897142275440e-01 0.000000000000000000e+00
2.318077469025994465e+07 9.999999892614168662e-01 0.000000000000000000e+00
2.353996116916708648e+07 9.999999887893075146e-01 0.000000000000000000e+00
2.390471324837678671e+07 9.999999882971203347e-01 0.000000000000000000e+00
2.427511716695579141e+07 9.999999877840477502e-01 0.000000000000000000e+00
2.465126050024658069e+07 9.999999872492529862e-01 0.000000000000000000e+00
2.503323218057302758e+07 9.999999866918687363e-01 0.000000000000000000e+00
2.542112251826666296e+07 9.999999861109977184e-01 0.000000000000000000e+00
2.581502322301920131e+07 9.999999855057105647e-01 0.000000000000000000e+00
2.621502742556547374e+07 9.999999848750449338e-01 0.000000000000000000e+00
2.662122969970256090e+07 9.999999842180058440e-01 0.000000000000000000e+00
2.703372608465004340e+07 9.999999835335635634e-01 0.000000000000000000e+00
2.745261410775677487e+07 9.999999828206542762e-01 0.000000000000000000e+00
2.787799280755945295e+07 9.999999820781775295e-01 0.000000000000000000e+00
2.830996275719850883e+07 9.999999813049970099e-01 0.000000000000000000e+00
2.874862608819680288e+07 9.999999804999389896e-01 0.000000000000000000e+00
2.919408651460680366e+07 9.999999796617919934e-01 0.000000000000000000e+00
2.964644935753189772e+07 9.999999787893055769e-01 0.000000000000000000e+00
3.010582157002766803e+07 9.999999778811903273e-01 0.000000000000000000e+00
3.057231176238903776e+07 9.999999769361171964e-01 0.000000000000000000e+00
3.104603022782918811e+07 9.999999759527161691e-01 0.000000000000000000e+00
3.152708896855644137e+07 9.999999749295768181e-01 0.000000000000000000e+00
3.201560172225513682e+07 9.999999738652470826e-01 0.000000000000000000e+00
3.251168398897688091e+07 9.999999727582338238e-01 0.000000000000000000e+00
3.301545305844844505e+07 9.999999716070013811e-01 0.000000000000000000e+00
3.352702803780281544e+07 9.999999704099724607e-01 0.000000000000000000e+00
3.404652987973993272e+07 9.999999691655273582e-01 0.000000000000000000e+00
3.457408141112377495e+07 9.999999678720045138e-01 0.000000000000000000e+00
3.510980736202257872e+07 9.999999665277004013e-01 0.000000000000000000e+00
3.565383439519898593e+07 9.999999651308700832e-01 0.000000000000000000e+00
3.620629113605720550e+07 9.999999636797276548e-01 0.000000000000000000e+00
3.676730820305417478e+07 9.999999621724465770e-01 0.000000000000000000e+00
3.733701823858191818e+07 9.999999606071612313e-01 0.000000000000000000e+00
3.791555594032848626e+07 9.999999589819678070e-01 0.000000000000000000e+00
3.850305809312484413e+07 9.999999572949250792e-01 0.000000000000000000e+00
3.909966360128491372e+07 9.999999555440567400e-01 0.000000000000000000e+00
3.970551352144742757e+07 9.999999537273527306e-01 0.000000000000000000e+00
4.032075109592594206e+07 9.999999518427721279e-01 0.000000000000000000e+00
4.094552178657598794e+07 9.999999498882452542e-01 0.000000000000000000e+00
4.157997330918689817e+07 9.999999478616764526e-01 0.000000000000000000e+00
4.222425566840653867e+07 9.999999457609478615e-01 0.000000000000000000e+00
4.287852119320724159e+07 9.999999435839229678e-01 0.000000000000000000e+00
4.354292457290121913e+07 9.999999413284509364e-01 0.000000000000000000e+00
4.421762289371407777e+07 9.999999389923713844e-01 0.000000000000000000e+00
4.490277567592503130e+07 9.999999365735198209e-01 0.000000000000000000e+00
4.559854491158261150e+07 9.999999340697336425e-01 0.000000000000000000e+00
4.630509510280475020e+07 9.999999314788591276e-01 0.000000000000000000e+00
4.702259330067235976e+07 9.999999287987580976e-01 0.000000000000000000e+00
4.775120914472556859e+07 9.999999260273169099e-01 0.000000000000000000e+00
4.849111490307190269e+07 9.999999231624550067e-01 0.000000000000000000e+00
4.924248551311602443e+07 9.999999202021353506e-01 0.000000000000000000e+00
5.000549862292049825e+07 9.999999171443750834e-01 0.000000000000000000e+00
5.078033463320748508e+07 9.999999139872580711e-01 0.000000000000000000e+00
5.156717674001127481e+07 9.999999107289477829e-01 0.000000000000000000e+00
5.236621097799165547e+07 9.999999073677018346e-01 0.000000000000000000e+00
5.317762626441849768e+07 9.999999039018881986e-01 0.000000000000000000e+00
5.400161444383779913e+07 9.999999003300027445e-01 0.000000000000000000e+00
5.483837033342991769e+07 9.999998966506877807e-01 0.000000000000000000e+00
5.568809176907058060e+07 9.999998928627525929e-01 0.000000000000000000e+00
5.655097965210559964e+07 9.999998889651973144e-01 0.000000000000000000e+00
5.742723799685039371e+07 9.999998849572361292e-01 0.000000000000000000e+00
5.831707397882549465e+07 9.999998808383243620e-01 0.000000000000000000e+00
5.922069798373948038e+07 9.999998766081880097e-01 0.000000000000000000e+00
6.013832365723089874e+07 9.999998722668547169e-01 0.000000000000000000e+00
6.107016795538090169e+07 9.999998678146883035e-01 0.000000000000000000e+00
6.201645119600865245e+07 9.999998632524258468e-01 0.000000000000000000e+00
6.297739711076147109e+07 9.999998585812175378e-01 0.000000000000000000e+00
6.395323289801218361e+07 9.999998538026707573e-01 0.000000000000000000e+00
6.494418927657606453e+07 9.999998489188964834e-01 0.000000000000000000e+00
6.595050054026017338e+07 9.999998439325614719e-01 0.000000000000000000e+00
6.697240461325791478e+07 9.999998388469414357e-01 0.000000000000000000e+00
6.801014310640202463e+07 9.999998336659822185e-01 0.000000000000000000e+00
6.906396137428861856e+07 9.999998283943631883e-01 0.000000000000000000e+00
7.013410857328766584e+07 9.999998230375671815e-01 0.000000000000000000e+00
7.122083772045093775e+07 9.999998176019546658e-01 0.000000000000000000e+00
7.232440575333356857e+07 9.999998120948448976e-01 0.000000000000000000e+00
7.344507359074223042e+07 9.999998065246027412e-01 0.000000000000000000e+00
7.458310619442476332e+07 9.999998009007327049e-01 0.000000000000000000e+00
7.573877263171552122e+07 9.999997952339795271e-01 0.000000000000000000e+00
7.691234613915163279e+07 9.999997895364375333e-01 0.000000000000000000e+00
7.810410418707470596e+07 9.999997838216668766e-01 0.000000000000000000e+00
7.931432854523386061e+07 9.999997781048204359e-01 0.000000000000000000e+00
8.054330534940499067e+07 9.999997724027785972e-01 0.000000000000000000e+00
8.179132516904246807e+07 9.999997667342959140e-01 0.000000000000000000e+00
8.305868307597909868e+07 9.999997611201568715e-01 0.000000000000000000e+00
8.434567871419046819e+07 9.999997555833448626e-01 0.000000000000000000e+00
8.565261637064042687e+07 9.999997501492234875e-01 0.000000000000000000e+00
8.697980504722426832e+07 9.999997448457302873e-01 0.000000000000000000e+00
8.832755853382664919e+07 9.999997397035862434e-01 0.000000000000000000e+00
8.969619548251155019e+07 9.999997347565192651e-01 0.000000000000000000e+00
9.108603948286184669e+07 9.999997300415059964e-01 0.000000000000000000e+00
9.249741913848623633e+07 9.999997255990290546e-01 0.000000000000000000e+00
9.393066814471167326e+07 9.999997214733552520e-01 0.000000000000000000e+00
9.538612536747957766e+07 9.999997177128318038e-01 0.000000000000000000e+00
9.686413492346459627e+07 9.999997143702060720e-01 0.000000000000000000e+00
9.836504626143486798e+07 9.999997115029675143e-01 0.000000000000000000e+00
9.988921424487280846e+07 9.999997091737138355e-01 0.000000000000000000e+00
1.014369992358764559e+08 9.999997074505446726e-01 0.000000000000000000e+00
1.030087671803597659e+08 9.999997064074818143e-01 0.000000000000000000e+00
1.046048896945751756e+08 9.999997061249217278e-01 0.000000000000000000e+00
1.062257441529747695e+08 9.999997066901180620e-01 0.000000000000000000e+00
1.078717137774338573e+08 9.999997081976998992e-01 0.000000000000000000e+00
1.095431877278568894e+08 9.999997107502263116e-01 0.000000000000000000e+00
1.112405611941873878e+08 9.999997144587806641e-01 0.000000000000000000e+00
1.129642354898433983e+08 9.999997194436057724e-01 0.000000000000000000e+00
1.147146181466008723e+08 9.999997258347855800e-01 0.000000000000000000e+00
1.164921230109472573e+08 9.999997337729727986e-01 0.000000000000000000e+00
1.182971703419280052e+08 9.999997434101690619e-01 0.000000000000000000e+00
1.201301869105092436e+08 9.999997549105591466e-01 0.000000000000000000e+00
1.219916061004801840e+08 9.999997684514038143e-01 0.000000000000000000e+00
1.238818680109188110e+08 9.999997842239949364e-01 0.000000000000000000e+00
1.258014195602454841e+08 9.999998024346753445e-01 0.000000000000000000e+00
1.277507145918886960e+08 9.999998233059337327e-01 0.000000000000000000e+00
1.297302139815881997e+08 9.999998470775700588e-01 0.000000000000000000e+00
1.317403857463608384e+08 9.999998740079473203e-01 0.000000000000000000e+00
1.337817051551546305e+08 9.999999043753243777e-01 0.000000000000000000e+00
1.358546548412176967e+08 9.999999384792847001e-01 0.000000000000000000e+00
1.379597249162081480e+08 9.999999766422627001e-01 0.000000000000000000e+00
1.400974130860720873e+08 1.000000019211173319e+00 0.000000000000000000e+00
1.422682247687174082e+08 1.000000066559154632e+00 0.000000000000000000e+00
1.444726732135106027e+08 1.000000119087432360e+00 0.000000000000000000e+00
1.467112796226254404e+08 1.000000177227306164e+00 0.000000000000000000e+00
1.489845732742717564e+08 1.000000241442277948e+00 0.000000000000000000e+00
1.512930916478338540e+08 1.000000312230322042e+00 0.000000000000000000e+00
1.536373805509477854e+08 1.000000390126309924e+00 0.000000000000000000e+00
1.560179942485477626e+08 1.000000475704601710e+00 0.000000000000000000e+00
1.584354955939120650e+08 1.000000569581813270e+00 0.000000000000000000e+00
1.608904561617396772e+08 1.000000672419769643e+00 0.000000000000000000e+00
1.633834563832888305e+08 1.000000784928660735e+00 0.000000000000000000e+00
1.659150856836094260e+08 1.000000907870410405e+00 0.000000000000000000e+00
1.684859426209020317e+08 1.000001042062271805e+00 0.000000000000000000e+00
1.710966350280363262e+08 1.000001188380666761e+00 0.000000000000000000e+00
1.737477801562620401e+08 1.000001347765285376e+00 0.000000000000000000e+00
1.764400048211470246e+08 1.000001521223458756e+00 0.000000000000000000e+00
1.791739455507765412e+08 1.000001709834829278e+00 0.000000000000000000e+00
1.819502487362487614e+08 1.000001914756333488e+00 0.000000000000000000e+00
1.847695707845024765e+08 1.000002137227518961e+00 0.000000000000000000e+00
1.876325782735125422e+08 1.000002378576218875e+00 0.000000000000000000e+00
1.905399481098903120e+08 1.000002640224607831e+00 0.000000000000000000e+00
1.934923676889261007e+08 1.000002923695660684e+00 0.000000000000000000e+00
1.964905350571113229e+08 1.000003230620046146e+00 0.000000000000000000e+00
1.995351590771790445e+08 1.000003562743479790e+00 0.000000000000000000e+00
2.026269595957019329e+08 1.000003921934564444e+00 0.000000000000000000e+00
2.057666676132869124e+08 1.000004310193162826e+00 0.000000000000000000e+00
2.089550254574079216e+08 1.000004729659318858e+00 0.000000000000000000e+00
2.121927869579117596e+08 1.000005182622777378e+00 0.000000000000000000e+00
2.154807176252569854e+08 1.000005671533137130e+00 0.000000000000000000e+00
2.188195948314920366e+08 1.000006199010677221e+00 0.000000000000000000e+00
2.222102079940649271e+08 1.000006767857904766e+00 0.000000000000000000e+00
2.256533587624525726e+08 1.000007381071866597e+00 0.000000000000000000e+00
2.291498612077109218e+08 1.000008041857281205e+00 0.000000000000000000e+00
2.327005420149325728e+08 1.000008753640537318e+00 0.000000000000000000e+00
2.363062406787165999e+08 1.000009520084623738e+00 0.000000000000000000e+00
2.399678097016378045e+08 1.000010345105046383e+00 0.000000000000000000e+00
2.436861147958159745e+08 1.000011232886797385e+00 0.000000000000000000e+00
2.474620350875932574e+08 1.000012187902452832e+00 0.000000000000000000e+00
2.512964633253887594e+08 1.000013214931463335e+00 8.335903758650443398e-29
2.551903060907726884e+08 1.000014319080724245e+00 2.162211192505201714e-28
2.591444840128114223e+08 1.000015505806508109e+00 5.530613464130437015e-28
2.631599319857335687e+08 1.000016780937849958e+00 1.395307293784997115e-27
2.672375993899689615e+08 1.000018150701483810e+00 3.472785459620709652e-27
2.713784503166126013e+08 1.000019621748438281e+00 8.528768995855103523e-27
2.755834637953664660e+08 1.000021201182393016e+00 2.067199813318395242e-26
2.798536340260137916e+08 1.000022896589933596e+00 4.945979588292636784e-26
2.841899706134794354e+08 1.000024716072824393e+00 1.168370697432063810e-25
2.885934988065328598e+08 1.000026668282448128e+00 2.725529411336222479e-25
2.930652597401899099e+08 1.000028762456567133e+00 6.279789472179384716e-25
2.976063106818702817e+08 1.000031008458541537e+00 1.429368263669390489e-24
3.022177252813694477e+08 1.000033416819259502e+00 3.214605025939966609e-24
3.069005938247038126e+08 1.000035998781906077e+00 7.144533888644182456e-24
3.116560234918893576e+08 1.000038766349840458e+00 1.569495707493429838e-23
3.164851386187142134e+08 1.000041732337781708e+00 3.408491987857181015e-23
3.213890809625677466e+08 1.000044910426556521e+00 7.319056974406053460e-23
3.263690099723885655e+08 1.000048315221810036e+00 1.554219396501207756e-22
3.314261030627954006e+08 1.000051962316903964e+00 3.264422616597757086e-22
3.365615558924655318e+08 1.000055868360497202e+00 6.782794971890392524e-22
3.417765826468266249e+08 1.000060051128697003e+00 1.394407040064175959e-21
3.470724163251295090e+08 1.000064529603201802e+00 2.836731609087803506e-21
3.524503090319680572e+08 1.000069324055082198e+00 5.711667550017349341e-21
3.579115322733171582e+08 1.000074456135176870e+00 1.138389143536634806e-20
3.634573772571575642e+08 1.000079948972026456e+00 2.246300606773501034e-20
3.690891551987583041e+08 1.000085827276199435e+00 4.388938218362964833e-20
3.748081976306903362e+08 1.000092117455278373e+00 8.492385871251928553e-20
3.806158567176433802e+08 1.000098847737656893e+00 1.627578261366458918e-19
3.865135055761207938e+08 1.000106048307443096e+00 3.089998610118961513e-19
3.925025385990885496e+08 1.000113751449661414e+00 5.812197399511175300e-19
3.985843717856540680e+08 1.000121991709717717e+00 1.083299741182925710e-18
4.047604430758538246e+08 1.000130806068429301e+00 2.000980351535280887e-18
4.110322126906284690e+08 1.000140234131709827e+00 3.663378246260006134e-18
4.174011634770658016e+08 1.000150318344120715e+00 6.648497586079345813e-18
4.238688012589931488e+08 1.000161104209345453e+00 1.196259308541792059e-17
4.304366551930025220e+08 1.000172640546184155e+00 2.134242112421709374e-17
4.371062781299918890e+08 1.000184979769365157e+00 3.776020353784951944e-17
4.438792469823092222e+08 1.000198178192177600e+00 6.626012864656967819e-17
4.507571630965847373e+08 1.000212296374539234e+00 1.153325463476499139e-16
4.577416526323405504e+08 1.000227399474494794e+00 1.991529597375585259e-16
4.648343669464669228e+08 1.000243557680037698e+00 3.412006975606282749e-16
4.720369829836559296e+08 1.000260846659763114e+00 5.800609808625718944e-16
4.793512036728846431e+08 1.000279348081327901e+00 9.786552516020546968e-16
4.867787583300423026e+08 1.000299150189313480e+00 1.638812743342547819e-15
4.943214030667957664e+08 1.000320348367382817e+00 2.724099387921371573e-15
5.019809212057906389e+08 1.000343045901685102e+00 4.495319574339706780e-15
5.097591237022857666e+08 1.000367354724112534e+00 7.365320161797225030e-15
5.176578495723209381e+08 1.000393396263131951e+00 1.198298442836357324e-14
5.256789663275194168e+08 1.000421302447330518e+00 1.936105785542473088e-14
5.338243704166270494e+08 1.000451216728999615e+00 3.106932268423785788e-14
5.420959876738939285e+08 1.000483295171222142e+00 4.952452884358614150e-14
5.504957737744028568e+08 1.000517707910283383e+00 7.842267507932030467e-14
5.590257146964536905e+08 1.000554640505619375e+00 1.233792191964783377e-13
5.676878271911146641e+08 1.000594295531191946e+00 1.928711367748184112e-13
5.764841592590348721e+08 1.000636894459052240e+00 2.996144132630214523e-13
5.854167906346831322e+08 1.000682679516243789e+00 4.625654880441790597e-13
5.944878332780287266e+08 1.000731915923638304e+00 7.098116979381538265e-13
6.036994318739138842e+08 1.000784894268572867e+00 1.082720301493868220e-12
6.130537643390874863e+08 1.000841933136371598e+00 1.641858970227978534e-12
