# T[K] Gamma_nTOp[1/tau_n] Gamma_pTOn[1/tau_n]
# fingerprint_hash: 620f06278757de93
# fingerprint: {"QED_corrections":true,"T_end_MeV":0.0001,"T_start_cosmo_MeV":40.0,"analytic_distortions":false,"delta_xi_nu":0.0,"finite_mass_corrections":true,"format_version":1,"incomplete_decoupling":true,"munuOverTnu":0.0,"nevo_file":null,"nevo_file_prefix":"NEVOPRIMAT","nevo_spectral_file":null,"radiative_corrections":false,"sampling_nTOp_per_decade":80,"spectral_distortions":false,"y_SZ":0.0,"y_gray":0.0}
1.160451812155007152e+06 9.999998396687387325e-01 0.000000000000000000e+00
1.194423774848161964e+06 9.999998349721918034e-01 0.000000000000000000e+00
1.229390259017469129e+06 9.999998301393514533e-01 0.000000000000000000e+00
1.265380379052794306e+06 9.999998251663460014e-01 0.000000000000000000e+00
1.302424101661148015e+06 9.999998200491786449e-01 0.000000000000000000e+00
1.340552270818068646e+06 9.999998147837216855e-01 0.000000000000000000e+00
1.379796633449450601e+06 9.999998093657090914e-01 0.000000000000000000e+00
1.420189865865226369e+06 9.999998037907301685e-01 0.000000000000000000e+00
1.461765600966865197e+06 9.999997980542220111e-01 0.000000000000000000e+00
1.504558456251363736e+06 9.999997921514635069e-01 0.000000000000000000e+00
1.548604062635073205e+06 9.999997860775676761e-01 0.000000000000000000e+00
1.593939094121308997e+06 9.999997798274758987e-01 0.000000000000000000e+00
1.640601298336490057e+06 9.999997733959509194e-01 0.000000000000000000e+00
1.688629527960198000e+06 9.999997667775724075e-01 0.000000000000000000e+00
1.738063773075376172e+06 9.999997599667299619e-01 0.000000000000000000e+00
1.788945194465545705e+06 9.999997529576195587e-01 0.000000000000000000e+00
1.841316157886786154e+06 9.999997457442389992e-01 0.000000000000000000e+00
1.895220269343055319e+06 9.999997383203840240e-01 0.000000000000000000e+00
1.950702411394152790e+06 9.999997306796453156e-01 0.000000000000000000e+00
2.007808780526589602e+06 9.999997228154064999e-01 0.000000000000000000e+00
2.066586925618517678e+06 9.999997147208420367e-01 0.000000000000000000e+00
2.127085787530675530e+06 9.999997063889157767e-01 0.000000000000000000e+00
2.189355739856346976e+06 9.999996978123804059e-01 0.000000000000000000e+00
2.253448630864310078e+06 9.999996889837770020e-01 0.000000000000000000e+00
2.319417826669610105e+06 9.999996798954347010e-01 0.000000000000000000e+00
2.387318255668149795e+06 9.999996705394712526e-01 0.000000000000000000e+00
2.457206454272137024e+06 9.999996609077925758e-01 0.000000000000000000e+00
2.529140613984378055e+06 9.999996509920929810e-01 0.000000000000000000e+00
2.603180629850666504e+06 9.999996407838550594e-01 0.000000000000000000e+00
2.679388150330644567e+06 9.999996302743483501e-01 0.000000000000000000e+00
2.757826628628573846e+06 9.999996194546282302e-01 0.000000000000000000e+00
2.838561375526837073e+06 9.999996083155340276e-01 0.000000000000000000e+00
2.921659613766088616e+06 9.999995968476849129e-01 0.000000000000000000e+00
3.007190534017433412e+06 9.999995850414769016e-01 0.000000000000000000e+00
3.095225352493126877e+06 9.999995728870748612e-01 0.000000000000000000e+00
3.185837370243811514e+06 9.999995603744077366e-01 0.000000000000000000e+00
3.279102034191722516e+06 9.999995474931583361e-01 0.000000000000000000e+00
3.375096999950573780e+06 9.999995342327536729e-01 0.000000000000000000e+00
3.473902196484477259e+06 9.999995205823529743e-01 0.000000000000000000e+00
3.575599892659796868e+06 9.999995065308342479e-01 0.000000000000000000e+00
3.680274765745237935e+06 9.999994920667798493e-01 0.000000000000000000e+00
3.788013971917252522e+06 9.999994771784592729e-01 0.000000000000000000e+00
3.898907218829544261e+06 9.999994618538140534e-01 0.000000000000000000e+00
4.013046840306964237e+06 9.999994460804367824e-01 0.000000000000000000e+00
4.130527873226046562e+06 9.999994298455545660e-01 0.000000000000000000e+00
4.251448136646280065e+06 9.999994131360082639e-01 0.000000000000000000e+00
4.375908313257860020e+06 9.999993959382328379e-01 0.000000000000000000e+00
4.504012033213795163e+06 9.999993782382383678e-01 0.000000000000000000e+00
4.635865960416263901e+06 9.999993600215899558e-01 0.000000000000000000e+00
4.771579881328906864e+06 9.999993412733898523e-01 0.000000000000000000e+00
4.911266796389074065e+06 9.999993219782571385e-01 0.000000000000000000e+00
5.055043014096228406e+06 9.999993021203127386e-01 0.000000000000000000e+00
5.203028247854683548e+06 9.999992816831608788e-01 0.000000000000000000e+00
5.355345715651390143e+06 9.999992606498740999e-01 0.000000000000000000e+00
5.512122242651852779e+06 9.999992390029790457e-01 0.000000000000000000e+00
5.673488366799422540e+06 9.999992167244420305e-01 0.000000000000000000e+00
5.839578447506044991e+06 9.999991937956566046e-01 0.000000000000000000e+00
6.010530777524835430e+06 9.999991701974322300e-01 0.000000000000000000e+00
6.186487698097817600e+06 9.999991459099828450e-01 0.000000000000000000e+00
6.367595717474482954e+06 9.999991209129156511e-01 0.000000000000000000e+00
6.554005632899941877e+06 9.999990951852225640e-01 0.000000000000000000e+00
6.745872656174374744e+06 9.999990687052687788e-01 0.000000000000000000e+00
6.943356542888090014e+06 9.999990414507838876e-01 0.000000000000000000e+00
7.146621725439900532e+06 9.999990133988513330e-01 0.000000000000000000e+00
7.355837449949711561e+06 9.999989845258977494e-01 0.000000000000000000e+00
7.571177917179075070e+06 9.999989548076808621e-01 0.000000000000000000e+00
7.792822427577140741e+06 9.999989242192779404e-01 0.000000000000000000e+00
8.020955530572948977e+06 9.999988927350701440e-01 0.000000000000000000e+00
8.255767178238056600e+06 9.999988603287286448e-01 0.000000000000000000e+00
8.497452883447702974e+06 9.999988269731960866e-01 0.000000000000000000e+00
8.746213882672000676e+06 9.999987926406664895e-01 0.000000000000000000e+00
9.002257303532974795e+06 9.999987573025654886e-01 0.000000000000000000e+00
9.265796337266651914e+06 9.999987209295249091e-01 0.000000000000000000e+00
9.537050416233910248e+06 9.999986834913580092e-01 0.000000000000000000e+00
9.816245396628113464e+06 9.999986449570310576e-01 0.000000000000000000e+00
1.010361374653128162e+07 9.999986052946343573e-01 0.000000000000000000e+00
1.039939473947557062e+07 9.999985644713509370e-01 0.000000000000000000e+00
1.070383465367138945e+07 9.999985224534241324e-01 0.000000000000000000e+00
1.101718697706771642e+07 9.999984792061246131e-01 0.000000000000000000e+00
1.133971261841546744e+07 9.999984346937160762e-01 0.000000000000000000e+00
1.167168012450993806e+07 9.999983888794228282e-01 0.000000000000000000e+00
1.201336590379273519e+07 9.999983417253943685e-01 0.000000000000000000e+00
1.236505445649960823e+07 9.999982931926734153e-01 0.000000000000000000e+00
1.272703861154604144e+07 9.999982432411624877e-01 0.000000000000000000e+00
1.309961977034736983e+07 9.999981918295923755e-01 0.000000000000000000e+00
1.348310815777668729e+07 9.999981389154912748e-01 0.000000000000000000e+00
1.387782308046972565e+07 9.999980844551539239e-01 0.000000000000000000e+00
1.428409319269130938e+07 9.999980284036115163e-01 0.000000000000000000e+00
1.470225676998497546e+07 9.999979707146030572e-01 0.000000000000000000e+00
1.513266199083390087e+07 9.999979113405458309e-01 0.000000000000000000e+00
1.557566722656711750e+07 9.999978502325049812e-01 0.000000000000000000e+00
1.603164133975265734e+07 9.999977873401652007e-01 0.000000000000000000e+00
1.650096399132637493e+07 9.999977226117994222e-01 0.000000000000000000e+00
1.698402595671162382e+07 9.999976559942375109e-01 0.000000000000000000e+00
1.748122945119322836e+07 9.999975874328350667e-01 0.000000000000000000e+00
1.799298846481704339e+07 9.999975168714406726e-01 0.000000000000000000e+00
1.851972910709329695e+07 9.999974442523625884e-01 0.000000000000000000e+00
1.906188996179104224e+07 9.999973695163353327e-01 0.000000000000000000e+00
1.961992245211946219e+07 9.999972926024852660e-01 0.000000000000000000e+00
2.019429121659941226e+07 9.999972134482976172e-01 0.000000000000000000e+00
2.078547449593874440e+07 9.999971319895827326e-01 0.000000000000000000e+00
2.139396453123306111e+07 9.999970481604453232e-01 0.000000000000000000e+00
2.202026797382412851e+07 9.999969618932519344e-01 0.000000000000000000e+00
2.266490630715640634e+07 9.999968731186035242e-01 0.000000000000000000e+00
2.332841628098354116e+07 9.999967817653087065e-01 0.000000000000000000e+00
2.401135035828592256e+07 9.999966877603593263e-01 0.000000000000000000e+00
2.471427717527209967e+07 9.999965910289113635e-01 0.000000000000000000e+00
2.543778201484620571e+07 9.999964914942660599e-01 0.000000000000000000e+00
2.618246729393604398e+07 9.999963890778601483e-01 0.000000000000000000e+00
2.694895306508802250e+07 9.999962836992553061e-01 0.000000000000000000e+00
2.773787753274573386e+07 9.999961752761384881e-01 0.000000000000000000e+00
2.854989758464243636e+07 9.999960637243247019e-01 0.000000000000000000e+00
2.938568933875045553e+07 9.999959489577694427e-01 0.000000000000000000e+00
3.024594870624187589e+07 9.999958308885881220e-01 0.000000000000000000e+00
3.113139197092977539e+07 9.999957094270857105e-01 0.000000000000000000e+00
3.204275638567303866e+07 9.999955844817970396e-01 0.000000000000000000e+00
3.298080078624019027e+07 9.999954559595394255e-01 0.000000000000000000e+00
3.394630622314398736e+07 9.999953237654797267e-01 0.000000000000000000e+00
3.494007661197337508e+07 9.999951878032189434e-01 0.000000000000000000e+00
3.596293940276323259e+07 9.999950479748914711e-01 0.000000000000000000e+00
3.701574626895964146e+07 9.999949041812917772e-01 0.000000000000000000e+00
3.809937381655522436e+07 9.999947563220178415e-01 0.000000000000000000e+00
3.921472431398352981e+07 9.999946042956476822e-01 0.000000000000000000e+00
4.036272644338091463e+07 9.999944479999427482e-01 0.000000000000000000e+00
4.154433607384214550e+07 9.999942873320887271e-01 0.000000000000000000e+00
4.276053705731222034e+07 9.999941221889729892e-01 0.000000000000000000e+00
4.401234204777763784e+07 9.999939524675082181e-01 0.000000000000000000e+00
4.530079334444013983e+07 9.999937780650058894e-01 0.000000000000000000e+00
4.662696375957339257e+07 9.999935988796061492e-01 0.000000000000000000e+00
4.799195751178593934e+07 9.999934148107694210e-01 0.000000000000000000e+00
4.939691114543503523e+07 9.999932257598442842e-01 0.000000000000000000e+00
5.084299447695536911e+07 9.999930316307117373e-01 0.000000000000000000e+00
5.233141156889118254e+07 9.999928323305229405e-01 0.000000000000000000e+00
5.386340173244398832e+07 9.999926277705403210e-01 0.000000000000000000e+00
5.544024055936867744e+07 9.999924178670913655e-01 0.000000000000000000e+00
5.706324098407810181e+07 9.999922025426566385e-01 0.000000000000000000e+00
5.873375437684158981e+07 9.999919817271009093e-01 0.000000000000000000e+00
6.045317166898543388e+07 9.999917553590708108e-01 0.000000000000000000e+00
6.222292451103405654e+07 9.999915233875782405e-01 0.000000000000000000e+00
6.404448646475479007e+07 9.999912857737898175e-01 0.000000000000000000e+00
6.591937423010069132e+07 9.999910424930548158e-01 0.000000000000000000e+00
6.784914890807065368e+07 9.999907935371922241e-01 0.000000000000000000e+00
6.983541730054014921e+07 9.999905389170782311e-01 0.000000000000000000e+00
7.187983324814344943e+07 9.999902786655634479e-01 0.000000000000000000e+00
7.398409900732341409e+07 9.999900128407668287e-01 0.000000000000000000e+00
7.614996666769285500e+07 9.999897415297877012e-01 0.000000000000000000e+00
7.837923961088877916e+07 9.999894648528933061e-01 0.000000000000000000e+00
8.067377401213566959e+07 9.999891829682351352e-01 0.000000000000000000e+00
8.303548038576523960e+07 9.999888960771610158e-01 0.000000000000000000e+00
8.546632517598097026e+07 9.999886044301999899e-01 0.000000000000000000e+00
8.796833239419335127e+07 9.999883083337967049e-01 0.000000000000000000e+00
9.054358530428627133e+07 9.999880081578923496e-01 0.000000000000000000e+00
9.319422815721915662e+07 9.999877043444543867e-01 0.000000000000000000e+00
9.592246797641080618e+07 9.999873974170727653e-01 0.000000000000000000e+00
9.873057639538833499e+07 9.999870879917517330e-01 0.000000000000000000e+00
1.016208915492325127e+08 9.999867767890470160e-01 0.000000000000000000e+00
1.045958200213979483e+08 9.999864646477110153e-01 0.000000000000000000e+00
1.076578388475208879e+08 9.999861525400338680e-01 0.000000000000000000e+00
1.108094975778920650e+08 9.999858415890858776e-01 0.000000000000000000e+00
1.140534204003080726e+08 9.999855330880971227e-01 0.000000000000000000e+00
1.173923083250646591e+08 9.999852285222342596e-01 0.000000000000000000e+00
1.208289414339191765e+08 9.999849295930700599e-01 0.000000000000000000e+00
1.243661811948912442e+08 9.999846382460771954e-01 0.000000000000000000e+00
1.280069728448240012e+08 9.999843567015123114e-01 0.000000000000000000e+00
1.317543478416987956e+08 9.999840874891131604e-01 0.000000000000000000e+00
1.356114263887411058e+08 9.999838334870695400e-01 0.000000000000000000e+00
1.395814200324140787e+08 9.999835979657958340e-01 0.000000000000000000e+00
1.436676343364725709e+08 9.999833846370917989e-01 0.000000000000000000e+00
1.478734716342998445e+08 9.999831977093550650e-01 0.000000000000000000e+00
1.522024338618128896e+08 9.999830419495795431e-01 0.000000000000000000e+00
1.566581254733055234e+08 9.999829227529802855e-01 0.000000000000000000e+00
1.612442564426526427e+08 9.999828462211718394e-01 0.000000000000000000e+00
1.659646453523680866e+08 9.999828192499520263e-01 0.000000000000000000e+00
1.708232225730995834e+08 9.999828496278648782e-01 0.000000000000000000e+00
1.758240335362032056e+08 9.999829461468625613e-01 0.000000000000000000e+00
1.809712421021151841e+08 9.999831187265533217e-01 0.000000000000000000e+00
1.862691340273382664e+08 9.999833785536897945e-01 0.000000000000000000e+00
1.917221205329236984e+08 9.999837382387724016e-01 0.000000000000000000e+00
1.973347419774128497e+08 9.999842119918594951e-01 0.000000000000000000e+00
2.031116716373098791e+08 9.999848158199338144e-01 0.000000000000000000e+00
2.090577195982275307e+08 9.999855677484701388e-01 0.000000000000000000e+00
2.151778367599376738e+08 9.999864880701718750e-01 0.000000000000000000e+00
2.214771189586761594e+08 9.999875996241528453e-01 0.000000000000000000e+00
2.279608112101274729e+08 9.999889281094752613e-01 0.000000000000000000e+00
2.346343120766140223e+08 9.999905024369711848e-01 0.000000000000000000e+00
2.415031781621412933e+08 9.999923551242126951e-01 0.000000000000000000e+00
2.485731287390354574e+08 9.999945227390533153e-01 0.000000000000000000e+00
2.558500505100153685e+08 9.999970463975548229e-01 2.497800613072686038e-28
2.633400025096821785e+08 9.999999723231656201e-01 1.432574910145502959e-27
2.710492211494992375e+08 1.000003352474598151e+00 7.833435793164998866e-27
2.789841254104528427e+08 1.000007245251867571e+00 4.089261374048387245e-26
2.871513221877367496e+08 1.000011716288561781e+00 2.040612498257315777e-25
2.955576117919012904e+08 1.000016839344391339e+00 9.746494688318087228e-25
3.042099936110370755e+08 1.000022697309086439e+00 4.461099434887344974e-24
3.131156719387277365e+08 1.000029383334947175e+00 1.959110142937990843e-23
3.222820619726160765e+08 1.000037002112397655e+00 8.264228814103204555e-23
3.317167959885642529e+08 1.000045671315849205e+00 3.352439443356618868e-22
3.414277296955730319e+08 1.000055523245430011e+00 1.309210067476799559e-21
3.514229487767407298e+08 1.000066706686223661e+00 4.927295987116744535e-21
3.617107756216938496e+08 1.000079389034150612e+00 1.788986117381960196e-20
3.722997762561208606e+08 1.000093758741614769e+00 6.272488214314835310e-20
3.831987674741675258e+08 1.000110028126663497e+00 2.125841137726982727e-19
3.944168241796168089e+08 1.000128436626674500e+00 6.970946630047609297e-19
4.059632869419945478e+08 1.000149254600315674e+00 2.213724634044092805e-18
4.178477697738785744e+08 1.000172787778529360e+00 6.814228399921636065e-18
4.300801681358719468e+08 1.000199382519015412e+00 2.034938891703231668e-17
4.426706671759345531e+08 1.000229432063357127e+00 5.900632606262586741e-17
4.556297502099201679e+08 1.000263383964160591e+00 1.662724220762724077e-16
4.689682074503630400e+08 1.000301748963412729e+00 4.556901595666800715e-16
4.826971449908131361e+08 1.000345112160314187e+00 1.215606304670937047e-15
4.968279940531876683e+08 1.000394145741744234e+00 3.158846382833798904e-15
5.113725205058177710e+08 1.000449624148821215e+00 8.002148143355746858e-15
5.263428346601520181e+08 1.000512443971854903e+00 1.977658083130794147e-14
5.417514013542568684e+08 1.000583646858794529e+00 4.771773788521241519e-14
5.576110503314876556e+08 1.000664447602457541e+00 1.124873267523971895e-13
5.739349869230254889e+08 1.000756268185156062e+00 2.592550701471670021e-13
5.907368030431095362e+08 1.000860778927160188e+00 5.845872255698935648e-13
6.080304885061746836e+08 1.000979951396973933e+00 1.290517922717586599e-12
6.258304426752967834e+08 1.001116111430298439e+00 2.790974245969771887e-12
6.441514864516215324e+08 1.001272021500060561e+00 5.917061870522764679e-12
6.630088746148020029e+08 1.001450956046448848e+00 1.230511725416266648e-11
6.824183085247018337e+08 1.001656803987786004e+00 2.511633036072968211e-11
7.023959491949106455e+08 1.001894197386958174e+00 5.034684289055586168e-11
7.229584307490235567e+08 1.002168652398782056e+00 9.916987440525638090e-11
7.441228742708098888e+08 1.002486773818252797e+00 1.920542726283570596e-10
7.659069020598695278e+08 1.002856394145884344e+00 3.658721238011575783e-10
7.883286523046215773e+08 1.003286832433708087e+00 6.859764754653464350e-10
8.114067941848138571e+08 1.003789160450576645e+00 1.266382105608999208e-09
8.351605434161820412e+08 1.004376572151420843e+00 2.302994495378237425e-09
8.596096782501769066e+08 1.005064829989930075e+00 4.127541210327535202e-09
8.847745559420487881e+08 1.005872343886741627e+00 7.293097170431632336e-09
9.106761297010622025e+08 1.006821039097542503e+00 1.270913072495524183e-08
9.373359661369252205e+08 1.007936942616272979e+00 2.185062946319353086e-08
9.647762632169255018e+08 1.009250457851427640e+00 3.707522827264486362e-08
9.930198687487908602e+08 1.010797421745615043e+00 6.210149977458221400e-08
1.022090299404632449e+09 1.012620225338190627e+00 1.027197397045664546e-07
1.052011760301773071e+09 1.014767866537243046e+00 1.678159096194961140e-07
1.082809165156836033e+09 1.017298290026619645e+00 2.708688434068142822e-07
1.114508157029842138e+09 1.020278553742865801e+00 4.320408703632554550e-07
1.147135129675544500e+09 1.023787172362734976e+00 6.811387812105219874e-07
1.180717249519859791e+09 1.027914956010352432e+00 1.061654859826073730e-06
1.215282478279654264e+09 1.032767517451297357e+00 1.636319103836713180e-06
1.250859596244677782e+09 1.038466825892285561e+00 2.494513865922117553e-06
1.287478226241111994e+09 1.045153950485092631e+00 3.762182463506767289e-06
1.325168858296648741e+09 1.052991437774651651e+00 5.614813551949981901e-06
1.363962875027585745e+09 1.062166244516834279e+00 8.294356527304353450e-06
1.403892577769169807e+09 1.072893546817598409e+00 1.213116933122567819e-05
1.444991213470902681e+09 1.085419590807495505e+00 1.757191601631127013e-05
1.487293002379149437e+09 1.100026974289154635e+00 2.521555453564804751e-05
1.530833166530198097e+09 1.117038702163580144e+00 3.585875735654831274e-05
1.575647959077452183e+09 1.136822686083302392e+00 5.055333390058711990e-05
1.621774694477110863e+09 1.159801643398998827e+00 7.068111820157615456e-05
1.669251779557586193e+09 1.186450800415882023e+00 9.804329663300976401e-05
1.718118745498470783e+09 1.217319729983448839e+00 1.349857666844191128e-04
1.768416280745623112e+09 1.253024370428593715e+00 1.845424067048275808e-04
1.820186264889892578e+09 1.294270736441911485e+00 2.506371347994761122e-04
1.873471803537642002e+09 1.341857222131405791e+00 3.383285421532763646e-04
1.928317264202027798e+09 1.396686403066812021e+00 4.541295045502759644e-04
1.984768313245055676e+09 1.459790459916181948e+00 6.064325298668320078e-04
2.042871953901109934e+09 1.532320772817569177e+00 8.060155483141284629e-04
