# T[K] Gamma_nTOp[1/tau_n] Gamma_pTOn[1/tau_n]
# fingerprint_hash: 13c81aba7cd907ec
# fingerprint: {"QED_corrections":true,"T_end_MeV":0.001,"T_start_cosmo_MeV":100.0,"analytic_distortions":false,"delta_xi_nu":0.0,"finite_mass_corrections":true,"format_version":1,"incomplete_decoupling":false,"munuOverTnu":0.05,"nevo_file":null,"nevo_file_prefix":"NEVOPRIMAT","nevo_spectral_file":null,"radiative_corrections":true,"sampling_nTOp_per_decade":150,"spectral_distortions":false,"y_SZ":0.0,"y_gray":0.0}
1.160451812155007198e+07 9.999983405952765914e-01 0.000000000000000000e+00
1.178433031761291809e+07 9.999983149399662707e-01 0.000000000000000000e+00
1.196692870656324737e+07 9.999982888898644173e-01 0.000000000000000000e+00
1.215235646050493419e+07 9.999982624390016950e-01 0.000000000000000000e+00
1.234065742049430311e+07 9.999982355813222812e-01 0.000000000000000000e+00
1.253187610690555163e+07 9.999982083106822017e-01 0.000000000000000000e+00
1.272605772995679639e+07 9.999981806208471102e-01 0.000000000000000000e+00
1.292324820039921999e+07 9.999981525054932874e-01 0.000000000000000000e+00
1.312349414037183113e+07 9.999981239582050874e-01 0.000000000000000000e+00
1.332684289442444220e+07 9.999980949724748269e-01 0.000000000000000000e+00
1.353334254071142524e+07 9.999980655417012310e-01 0.000000000000000000e+00
1.374304190235893987e+07 9.999980356591895436e-01 0.000000000000000000e+00
1.395599055900826678e+07 9.999980053181491968e-01 0.000000000000000000e+00
1.417223885853803717e+07 9.999979745116948093e-01 0.000000000000000000e+00
1.439183792896807566e+07 9.999979432328439666e-01 0.000000000000000000e+00
1.461483969054769725e+07 9.999979114745169984e-01 0.000000000000000000e+00
1.484129686803135276e+07 9.999978792295362018e-01 0.000000000000000000e+00
1.507126300314432755e+07 9.999978464906250641e-01 0.000000000000000000e+00
1.530479246724189445e+07 9.999978132504081518e-01 0.000000000000000000e+00
1.554194047416432761e+07 9.999977795014091120e-01 0.000000000000000000e+00
1.578276309329124913e+07 9.999977452360515606e-01 0.000000000000000000e+00
1.602731726279822551e+07 9.999977104466575284e-01 0.000000000000000000e+00
1.627566080311877280e+07 9.999976751254472385e-01 0.000000000000000000e+00
1.652785243061496504e+07 9.999976392645377743e-01 0.000000000000000000e+00
1.678395177145985141e+07 9.999976028559441898e-01 0.000000000000000000e+00
1.704401937573499978e+07 9.999975658915769561e-01 0.000000000000000000e+00
1.730811673174647242e+07 9.999975283632426271e-01 0.000000000000000000e+00
1.757630628056262806e+07 9.999974902626433959e-01 0.000000000000000000e+00
1.784865143077719212e+07 9.999974515813760956e-01 0.000000000000000000e+00
1.812521657350106537e+07 9.999974123109318658e-01 0.000000000000000000e+00
1.840606709758647159e+07 9.999973724426960420e-01 0.000000000000000000e+00
1.869126940508694202e+07 9.999973319679477113e-01 0.000000000000000000e+00
1.898089092695691064e+07 9.999972908778596015e-01 0.000000000000000000e+00
1.927500013899453729e+07 9.999972491634975258e-01 0.000000000000000000e+00
1.957366657803158462e+07 9.999972068158200500e-01 0.000000000000000000e+00
1.987696085837414861e+07 9.999971638256792694e-01 0.000000000000000000e+00
2.018495468849814311e+07 9.999971201838198098e-01 0.000000000000000000e+00
2.049772088800346479e+07 9.999970758808792715e-01 0.000000000000000000e+00
2.081533340483090654e+07 9.999970309073888952e-01 0.000000000000000000e+00
2.113786733274578676e+07 9.999969852537734516e-01 0.000000000000000000e+00
2.146539892909253761e+07 9.999969389103512407e-01 0.000000000000000000e+00
2.179800563282437995e+07 9.999968918673354246e-01 0.000000000000000000e+00
2.213576608281236142e+07 9.999968441148338050e-01 0.000000000000000000e+00
2.247876013643810898e+07 9.999967956428510441e-01 0.000000000000000000e+00
2.282706888847468048e+07 9.999967464412874429e-01 0.000000000000000000e+00
2.318077469025994465e+07 9.999966964999422725e-01 0.000000000000000000e+00
2.353996116916708648e+07 9.999966458085144394e-01 0.000000000000000000e+00
2.390471324837678671e+07 9.999965943566021531e-01 0.000000000000000000e+00
2.427511716695579141e+07 9.999965421337080329e-01 0.000000000000000000e+00
2.465126050024658069e+07 9.999964891292379976e-01 0.000000000000000000e+00
2.503323218057302758e+07 9.999964353325045963e-01 0.000000000000000000e+00
2.542112251826666296e+07 9.999963807327290066e-01 0.000000000000000000e+00
2.581502322301920131e+07 9.999963253190450319e-01 0.000000000000000000e+00
2.621502742556547374e+07 9.999962690804997667e-01 0.000000000000000000e+00
2.662122969970256090e+07 9.999962120060578163e-01 0.000000000000000000e+00
2.703372608465004340e+07 9.999961540846056263e-01 0.000000000000000000e+00
2.745261410775677487e+07 9.999960953049527035e-01 0.000000000000000000e+00
2.787799280755945295e+07 9.999960356558387220e-01 0.000000000000000000e+00
2.830996275719850883e+07 9.999959751259362983e-01 0.000000000000000000e+00
2.874862608819680288e+07 9.999959137038548773e-01 0.000000000000000000e+00
2.919408651460680366e+07 9.999958513781481706e-01 0.000000000000000000e+00
2.964644935753189772e+07 9.999957881373183755e-01 0.000000000000000000e+00
3.010582157002766803e+07 9.999957239698217260e-01 0.000000000000000000e+00
3.057231176238903776e+07 9.999956588640765975e-01 0.000000000000000000e+00
3.104603022782918811e+07 9.999955928084689472e-01 0.000000000000000000e+00
3.152708896855644137e+07 9.999955257913609730e-01 0.000000000000000000e+00
3.201560172225513682e+07 9.999954578010987749e-01 0.000000000000000000e+00
3.251168398897688091e+07 9.999953888260202373e-01 0.000000000000000000e+00
3.301545305844844505e+07 9.999953188544661309e-01 0.000000000000000000e+00
3.352702803780281544e+07 9.999952478747887730e-01 0.000000000000000000e+00
3.404652987973993272e+07 9.999951758753624631e-01 0.000000000000000000e+00
3.457408141112377495e+07 9.999951028445963619e-01 0.000000000000000000e+00
3.510980736202257872e+07 9.999950287709450381e-01 0.000000000000000000e+00
3.565383439519898593e+07 9.999949536429234564e-01 0.000000000000000000e+00
3.620629113605720550e+07 9.999948774491187464e-01 0.000000000000000000e+00
3.676730820305417478e+07 9.999948001782071882e-01 0.000000000000000000e+00
3.733701823858191818e+07 9.999947218189686460e-01 0.000000000000000000e+00
3.791555594032848626e+07 9.999946423603046641e-01 0.000000000000000000e+00
3.850305809312484413e+07 9.999945617912557871e-01 0.000000000000000000e+00
3.909966360128491372e+07 9.999944801010217654e-01 0.000000000000000000e+00
3.970551352144742757e+07 9.999943972789808733e-01 0.000000000000000000e+00
4.032075109592594206e+07 9.999943133147131125e-01 0.000000000000000000e+00
4.094552178657598794e+07 9.999942281980230829e-01 0.000000000000000000e+00
4.157997330918689817e+07 9.999941419189649627e-01 0.000000000000000000e+00
4.222425566840653867e+07 9.999940544678684873e-01 0.000000000000000000e+00
4.287852119320724159e+07 9.999939658353680372e-01 0.000000000000000000e+00
4.354292457290121913e+07 9.999938760124318371e-01 0.000000000000000000e+00
4.421762289371407777e+07 9.999937849903938192e-01 0.000000000000000000e+00
4.490277567592503130e+07 9.999936927609884840e-01 0.000000000000000000e+00
4.559854491158261150e+07 9.999935993163853176e-01 0.000000000000000000e+00
4.630509510280475020e+07 9.999935046492285373e-01 0.000000000000000000e+00
4.702259330067235976e+07 9.999934087526766158e-01 0.000000000000000000e+00
4.775120914472556859e+07 9.999933116204464678e-01 0.000000000000000000e+00
4.849111490307190269e+07 9.999932132468584145e-01 0.000000000000000000e+00
4.924248551311602443e+07 9.999931136268853660e-01 0.000000000000000000e+00
5.000549862292049825e+07 9.999930127562041138e-01 0.000000000000000000e+00
5.078033463320748508e+07 9.999929106312512861e-01 0.000000000000000000e+00
5.156717674001127481e+07 9.999928072492800801e-01 0.000000000000000000e+00
5.236621097799165547e+07 9.999927026084234338e-01 0.000000000000000000e+00
5.317762626441849768e+07 9.999925967077584188e-01 0.000000000000000000e+00
5.400161444383779913e+07 9.999924895473770725e-01 0.000000000000000000e+00
5.483837033342991769e+07 9.999923811284601172e-01 0.000000000000000000e+00
5.568809176907058060e+07 9.999922714533542312e-01 0.000000000000000000e+00
5.655097965210559964e+07 9.999921605256560930e-01 0.000000000000000000e+00
5.742723799685039371e+07 9.999920483503011992e-01 0.000000000000000000e+00
5.831707397882549465e+07 9.999919349336557906e-01 0.000000000000000000e+00
5.922069798373948038e+07 9.999918202836179937e-01 0.000000000000000000e+00
6.013832365723089874e+07 9.999917044097210717e-01 0.000000000000000000e+00
6.107016795538090169e+07 9.999915873232463337e-01 0.000000000000000000e+00
6.201645119600865245e+07 9.999914690373415960e-01 0.000000000000000000e+00
6.297739711076147109e+07 9.999913495671454156e-01 0.000000000000000000e+00
6.395323289801218361e+07 9.999912289299214274e-01 0.000000000000000000e+00
6.494418927657606453e+07 9.999911071451985656e-01 0.000000000000000000e+00
6.595050054026017338e+07 9.999909842349212763e-01 0.000000000000000000e+00
6.697240461325791478e+07 9.999908602236071697e-01 0.000000000000000000e+00
6.801014310640202463e+07 9.999907351385156629e-01 0.000000000000000000e+00
6.906396137428861856e+07 9.999906090098261702e-01 0.000000000000000000e+00
7.013410857328766584e+07 9.999904818708267307e-01 0.000000000000000000e+00
7.122083772045093775e+07 9.999903537581146251e-01 0.000000000000000000e+00
7.232440575333356857e+07 9.999902247118077625e-01 0.000000000000000000e+00
7.344507359074223042e+07 9.999900947757706104e-01 0.000000000000000000e+00
7.458310619442476332e+07 9.999899639978520050e-01 0.000000000000000000e+00
7.573877263171552122e+07 9.999898324301378372e-01 0.000000000000000000e+00
7.691234613915163279e+07 9.999897001292197274e-01 0.000000000000000000e+00
7.810410418707470596e+07 9.999895671564781319e-01 0.000000000000000000e+00
7.931432854523386061e+07 9.999894335783836574e-01 0.000000000000000000e+00
8.054330534940499067e+07 9.999892994668161395e-01 0.000000000000000000e+00
8.179132516904246807e+07 9.999891648994022608e-01 0.000000000000000000e+00
8.305868307597909868e+07 9.999890299598755972e-01 0.000000000000000000e+00
8.434567871419046819e+07 9.999888947384543147e-01 0.000000000000000000e+00
8.565261637064042687e+07 9.999887593322452917e-01 0.000000000000000000e+00
8.697980504722426832e+07 9.999886238456706655e-01 0.000000000000000000e+00
8.832755853382664919e+07 9.999884883909203603e-01 0.000000000000000000e+00
8.969619548251155019e+07 9.999883530884308147e-01 0.000000000000000000e+00
9.108603948286184669e+07 9.999882180673943521e-01 0.000000000000000000e+00
9.249741913848623633e+07 9.999880834662976392e-01 0.000000000000000000e+00
9.393066814471167326e+07 9.999879494334926733e-01 0.000000000000000000e+00
9.538612536747957766e+07 9.999878161278020761e-01 0.000000000000000000e+00
9.686413492346459627e+07 9.999876837191612466e-01 0.000000000000000000e+00
9.836504626143486798e+07 9.999875523892984841e-01 0.000000000000000000e+00
9.988921424487280846e+07 9.999874223324561884e-01 0.000000000000000000e+00
1.014369992358764559e+08 9.999872937561549158e-01 0.000000000000000000e+00
1.030087671803597659e+08 9.999871668820045079e-01 0.000000000000000000e+00
1.046048896945751756e+08 9.999870419465631821e-01 0.000000000000000000e+00
1.062257441529747695e+08 9.999869192022472486e-01 0.000000000000000000e+00
1.078717137774338573e+08 9.999867989182984473e-01 0.000000000000000000e+00
1.095431877278568894e+08 9.999866813818061306e-01 0.000000000000000000e+00
1.112405611941873878e+08 9.999865668987938383e-01 0.000000000000000000e+00
1.129642354898433983e+08 9.999864557953688227e-01 0.000000000000000000e+00
1.147146181466008723e+08 9.999863484189430718e-01 0.000000000000000000e+00
1.164921230109472573e+08 9.999862451395271634e-01 0.000000000000000000e+00
1.182971703419280052e+08 9.999861463511003912e-01 0.000000000000000000e+00
1.201301869105092436e+08 9.999860524730661560e-01 0.000000000000000000e+00
1.219916061004801840e+08 9.999859639517940657e-01 0.000000000000000000e+00
1.238818680109188110e+08 9.999858812622556270e-01 0.000000000000000000e+00
1.258014195602454841e+08 9.999858049097561929e-01 0.000000000000000000e+00
1.277507145918886960e+08 9.999857354317761571e-01 0.000000000000000000e+00
1.297302139815881997e+08 9.999856733999197278e-01 0.000000000000000000e+00
1.317403857463608384e+08 9.999856194219822747e-01 0.000000000000000000e+00
1.337817051551546305e+08 9.999855741441446844e-01 0.000000000000000000e+00
1.358546548412176967e+08 9.999855382532972792e-01 0.000000000000000000e+00
1.379597249162081480e+08 9.999855124795086203e-01 0.000000000000000000e+00
1.400974130860720873e+08 9.999854975986391947e-01 0.000000000000000000e+00
1.422682247687174082e+08 9.999854944351176389e-01 0.000000000000000000e+00
1.444726732135106027e+08 9.999855038648836070e-01 0.000000000000000000e+00
1.467112796226254404e+08 9.999855268185077195e-01 0.000000000000000000e+00
1.489845732742717564e+08 9.999855642845044690e-01 0.000000000000000000e+00
1.512930916478338540e+08 9.999856173128428560e-01 0.000000000000000000e+00
1.536373805509477854e+08 9.999856870186721869e-01 0.000000000000000000e+00
1.560179942485477626e+08 9.999857745862748004e-01 0.000000000000000000e+00
1.584354955939120650e+08 9.999858812732564939e-01 0.000000000000000000e+00
1.608904561617396772e+08 9.999860084149959638e-01 0.000000000000000000e+00
1.633834563832888305e+08 9.999861574293612554e-01 0.000000000000000000e+00
1.659150856836094260e+08 9.999863298217160912e-01 0.000000000000000000e+00
1.684859426209020317e+08 9.999865271902301789e-01 0.000000000000000000e+00
1.710966350280363262e+08 9.999867512315130380e-01 0.000000000000000000e+00
1.737477801562620401e+08 9.999870037465921069e-01 0.000000000000000000e+00
1.764400048211470246e+08 9.999872866472561128e-01 0.000000000000000000e+00
1.791739455507765412e+08 9.999876019627831347e-01 0.000000000000000000e+00
1.819502487362487614e+08 9.999879518470836670e-01 0.000000000000000000e+00
1.847695707845024765e+08 9.999883385862753382e-01 0.000000000000000000e+00
1.876325782735125422e+08 9.999887646067255886e-01 0.000000000000000000e+00
1.905399481098903120e+08 9.999892324835837343e-01 0.000000000000000000e+00
1.934923676889261007e+08 9.999897449498336144e-01 0.000000000000000000e+00
1.964905350571113229e+08 9.999903049059042370e-01 0.000000000000000000e+00
1.995351590771790445e+08 9.999909154298702862e-01 0.000000000000000000e+00
2.026269595957019329e+08 9.999915797882593660e-01 0.000000000000000000e+00
2.057666676132869124e+08 9.999923014475582406e-01 0.000000000000000000e+00
2.089550254574079216e+08 9.999930840863896497e-01 0.000000000000000000e+00
2.121927869579117596e+08 9.999939316084549557e-01 0.000000000000000000e+00
2.154807176252569854e+08 9.999948481562648261e-01 0.000000000000000000e+00
2.188195948314920366e+08 9.999958381257172402e-01 0.000000000000000000e+00
2.222102079940649271e+08 9.999969061815674465e-01 0.000000000000000000e+00
2.256533587624525726e+08 9.999980572738533802e-01 0.000000000000000000e+00
2.291498612077109218e+08 9.999992966553276075e-01 0.000000000000000000e+00
2.327005420149325728e+08 1.000000629899967075e+00 0.000000000000000000e+00
2.363062406787165999e+08 1.000002062922619173e+00 0.000000000000000000e+00
2.399678097016378045e+08 1.000003601999860381e+00 0.000000000000000000e+00
2.436861147958159745e+08 1.000005253792144888e+00 0.000000000000000000e+00
2.474620350875932574e+08 1.000007025367317226e+00 0.000000000000000000e+00
2.512964633253887594e+08 1.000008924225581186e+00 7.519188566015061760e-29
2.551903060907726884e+08 1.000010958326014165e+00 1.950604702944727982e-28
2.591444840128114223e+08 1.000013136114725087e+00 4.989969286390085538e-28
2.631599319857335687e+08 1.000015466554760257e+00 1.259065695386034633e-27
2.672375993899689615e+08 1.000017959157873504e+00 3.134086694256364960e-27
2.713784503166126013e+08 1.000020624018274740e+00 7.697939678287261110e-27
2.755834637953664660e+08 1.000023471848485279e+00 1.866062991497073711e-26
2.798536340260137916e+08 1.000026514017447132e+00 4.465318658466451493e-26
2.841899706134794354e+08 1.000029762591027938e+00 1.054964160040317552e-25
2.885934988065328598e+08 1.000033230375092286e+00 2.461305185902692289e-25
2.930652597401899099e+08 1.000036930961315074e+00 5.671760321414206090e-25
2.976063106818702817e+08 1.000040878775858788e+00 1.291147251900053340e-24
3.022177252813694477e+08 1.000045089131274878e+00 2.904148315262551654e-24
3.069005938247038126e+08 1.000049578281697604e+00 6.455431846580647568e-24
3.116560234918893576e+08 1.000054363481688968e+00 1.418314262838479388e-23
3.164851386187142134e+08 1.000059463048907249e+00 3.080606884129304630e-23
3.213890809625677466e+08 1.000064896430894912e+00 6.615939779235221920e-23
3.263690099723885655e+08 1.000070684276504140e+00 1.405115144557876437e-22
3.314261030627954006e+08 1.000076848512135186e+00 2.951684426888251151e-22
3.365615558924655318e+08 1.000083412423428131e+00 6.133904230708239941e-22
3.417765826468266249e+08 1.000090400741896035e+00 1.261198491301893085e-21
3.470724163251295090e+08 1.000097839738821381e+00 2.566129303835752705e-21
3.524503090319680572e+08 1.000105757325340017e+00 5.167618917671188445e-21
3.579115322733171582e+08 1.000114183160109915e+00 1.030116755564177241e-20
3.634573772571575642e+08 1.000123148765751813e+00 2.032977752603198440e-20
3.690891551987583041e+08 1.000132687651529517e+00 3.972776957970856690e-20
3.748081976306903362e+08 1.000142835449324918e+00 7.688388819990065270e-20
3.806158567176433802e+08 1.000153630058922216e+00 1.473734884976411602e-19
3.865135055761207938e+08 1.000165111805949136e+00 2.798392400571372036e-19
3.925025385990885496e+08 1.000177323610364377e+00 5.264589734881995254e-19
3.985843717856540680e+08 1.000190311171487600e+00 9.814036943785913616e-19
4.047604430758538246e+08 1.000204123170746140e+00 1.813083439049122042e-18
4.110322126906284690e+08 1.000218811489579807e+00 3.319966592404985744e-18
4.174011634770658016e+08 1.000234431456644035e+00 6.026338731579720388e-18
4.238688012589931488e+08 1.000251042095136711e+00 1.084512432014546882e-17
4.304366551930025220e+08 1.000268706416174158e+00 1.935232727168708132e-17
4.371062781299918890e+08 1.000287491738515611e+00 3.424564111099226002e-17
4.438792469823092222e+08 1.000307470028379830e+00 6.010434626335175365e-17
4.507571630965847373e+08 1.000328718295319552e+00 1.046379686667496659e-16
4.577416526323405504e+08 1.000351318975538195e+00 1.807212439184878989e-16
4.648343669464669228e+08 1.000375360422309345e+00 3.096838793188682343e-16
4.720369829836559296e+08 1.000400937403336910e+00 5.265866286153571804e-16
4.793512036728846431e+08 1.000428151679416233e+00 8.886170600126864297e-16
4.867787583300423026e+08 1.000457112647535229e+00 1.488347211853273415e-15
4.943214030667957664e+08 1.000487937931973992e+00 2.474509732803896535e-15
5.019809212057906389e+08 1.000520754250567634e+00 4.084316356513659144e-15
5.097591237022857666e+08 1.000555698213880795e+00 6.693362077341611308e-15
5.176578495723209381e+08 1.000592917249089941e+00 1.089213161522901131e-14
5.256789663275194168e+08 1.000632570709218516e+00 1.760246461770466723e-14
5.338243704166270494e+08 1.000674830965856632e+00 2.825361435892840070e-14
5.420959876738939285e+08 1.000719884549162941e+00 4.504657028743128448e-14
5.504957737744028568e+08 1.000767933782965802e+00 7.134827883973766353e-14
5.590257146964536905e+08 1.000819198194881521e+00 1.122756693330649433e-13
5.676878271911146641e+08 1.000873916215606396e+00 1.755553114966254300e-13
5.764841592590348721e+08 1.000932347227893038e+00 2.727808237688708007e-13
5.854167906346831322e+08 1.000994773502275725e+00 4.212404382021277369e-13
5.944878332780287266e+08 1.001061502597475394e+00 6.465572041160095536e-13
6.036994318739138842e+08 1.001132869862234154e+00 9.864800827153198595e-13
6.130537643390874863e+08 1.001209241209190859e+00 1.496295524391280733e-12
