# T[K] L_nTOpCCRTh L_pTOnCCRTh
# fingerprint_hash: 347acddd9ac84e46
# fingerprint: {"QED_corrections":false,"T_start_cosmo_MeV":40.0,"format_version":1,"incomplete_decoupling":true,"nevo_file":null,"nevo_file_prefix":"NEVOPRIMAT","sampling_nTOp_thermal_per_decade":20}
# provenance: backend=python algorithm=vegas vegas_n_eval=20000 vegas_n_itn=20
1.584893192461110950e+08 2.216080199230598694e-07 1.911374161951076864e-46
1.783011135732713044e+08 3.739886020918617689e-07 9.329157445308530797e-42
2.005894608715007603e+08 6.087125979116195800e-07 1.405006903214141097e-37
2.256639400975164175e+08 9.556206710742881004e-07 7.434210945154141763e-34
2.538728288070835173e+08 1.481202775698887636e-06 1.549849214228959064e-30
2.856079406335778236e+08 2.263909622429423688e-06 1.409688354490209029e-27
3.213100674705891013e+08 3.455663090024583385e-06 6.126802333798558335e-25
3.614751019489566088e+08 5.223597053148738621e-06 1.381073334463761326e-22
4.066609252477573752e+08 7.890055461435688513e-06 1.734184081532525794e-20
4.574951559090070128e+08 1.193661653127241101e-05 1.294332651877624047e-18
5.146838672849866748e+08 1.811026575306637077e-05 6.096655112777433498e-17
5.790213947010961771e+08 2.742021148394425020e-05 1.908818963916750318e-15
6.514013685530252457e+08 4.203456518937388341e-05 4.175749451750445432e-14
7.328291265848643780e+08 6.463344743305959959e-05 6.661128623936076424e-13
8.244356777512959242e+08 1.005498044341795631e-04 8.057590142828543499e-12
9.274934116180050373e+08 1.567020438797594637e-04 7.636423024987548931e-11
1.043433771499526024e+09 2.456466489425854043e-04 5.856926923299028399e-10
1.173867136809529066e+09 3.839399727408997903e-04 3.735065142776261604e-09
1.320605190783809423e+09 5.923169460345545801e-04 2.035742794546555951e-08
1.485686084257525444e+09 8.988047892772402540e-04 9.698179800241497988e-08
1.671402745014494658e+09 1.331320119742717680e-03 4.129278246284518338e-07
1.880334725917622328e+09 1.914317240818341412e-03 1.590069177247955054e-06
2.115384034182041407e+09 2.663728643327925409e-03 5.512186078495627811e-06
2.379815439449759007e+09 3.566782598345765408e-03 1.717293032998703622e-05
2.677301820533663750e+09 4.568300091576436503e-03 4.798834059495098061e-05
3.011975180684689045e+09 5.549725846200947998e-03 1.205258378278285743e-04
3.388484039969858170e+09 6.246116561495197901e-03 2.727383021577694166e-04
3.812058001925625801e+09 6.283452258177002481e-03 5.594191583573012490e-04
4.288580391299249172e+09 5.060922591877156478e-03 1.041008128150085980e-03
4.824669971796293259e+09 1.645957050183081624e-03 1.763803853699368127e-03
5.427772878871209145e+09 -4.927914697822492751e-03 2.718045748521543889e-03
6.106266044481631279e+09 -1.556741492029923776e-02 3.830447336201501379e-03
6.869573550347902298e+09 -2.933716750637575810e-02 5.074970108539842741e-03
7.728297525831991196e+09 -4.186317950592842452e-02 7.006656040370160335e-03
8.694365408571296692e+09 -3.838683161063209670e-02 1.282461798246608588e-02
9.781195613276195526e+09 1.848834809244205568e-02 3.217375268023819207e-02
1.100388390978551674e+10 2.127660653121923318e-01 9.473865705692859074e-02
1.237941309911894608e+10 7.366945935479520813e-01 2.744500839258178781e-01
1.392688889986894226e+10 1.983318616160968606e+00 7.493440860706315210e-01
1.566780532132795143e+10 4.775165151161123944e+00 1.931245747952582192e+00
1.762634320931091309e+10 1.076740410331948006e+01 4.712495956597781976e+00
1.982970611139097595e+10 2.332931991586752574e+01 1.108498473003317031e+01
2.230849812662348175e+10 4.890744646600479939e+01 2.511195722530368357e+01
2.509714898798648071e+10 1.002886941045107960e+02 5.532808717432287438e+01
2.823439228181358719e+10 2.024956135013280800e+02 1.192694169970573057e+02
3.176380344655600739e+10 4.038943620513445580e+02 2.519478416994998327e+02
3.573440502352600861e+10 7.974066143612213864e+02 5.236873005333840183e+02
4.020134756638687897e+10 1.557921362038694951e+03 1.073388193021576399e+03
4.522667566703415680e+10 3.029832494317688543e+03 2.175386630514010903e+03
5.088018973775251007e+10 5.854977116962174478e+03 4.362544993356928899e+03
5.724041551956611633e+10 1.127081685332165398e+04 8.676482879380104350e+03
6.439569478298348236e+10 2.158677302951931779e+04 1.710120442230905610e+04
7.244541237066476440e+10 4.119472250676238036e+04 3.350246298278529866e+04
8.150137662529786682e+10 7.843761261592218943e+04 6.524977417103222251e+04
9.168937237644023132e+10 1.489388738463644986e+05 1.263681186775184469e+05
1.031509080568829041e+11 2.816436109263827675e+05 2.435381747133452445e+05
1.160451812155009613e+11 5.324711546104780864e+05 4.677430333456818480e+05
