# T[K] L_nTOpCCRTh L_pTOnCCRTh
# fingerprint_hash: 0eccbdd5dbb5dd93
# fingerprint: {"QED_corrections":true,"T_start_cosmo_MeV":40.0,"format_version":1,"incomplete_decoupling":true,"nevo_file":null,"nevo_file_prefix":"NEVOPRIMAT","sampling_nTOp_thermal_per_decade":20}
# provenance: backend=python algorithm=vegas vegas_n_eval=20000 vegas_n_itn=20
1.584893192461110950e+08 2.181356160218929945e-07 1.924001703678146221e-46
1.783011135732713044e+08 3.726084781396094896e-07 9.378965231915496198e-42
2.005894608715007603e+08 6.119994549788977185e-07 1.412432263875579931e-37
2.256639400975164175e+08 9.632023706666111875e-07 7.471217870855645818e-34
2.538728288070835173e+08 1.494009472205358545e-06 1.556418813500182041e-30
2.856079406335778236e+08 2.266860275305767726e-06 1.415760978972245215e-27
3.213100674705891013e+08 3.456072629605705172e-06 6.154378214436840877e-25
3.614751019489566088e+08 5.212646326577300798e-06 1.385510639625016244e-22
4.066609252477573752e+08 7.908880567612724274e-06 1.739352918825857174e-20
4.574951559090070128e+08 1.195898042106106620e-05 1.297903123450056127e-18
5.146838672849866748e+08 1.810394748571100940e-05 6.109240357763245876e-17
5.790213947010961771e+08 2.752336176138089576e-05 1.913836594393593329e-15
6.514013685530252457e+08 4.206253030747269687e-05 4.182289465040749382e-14
7.328291265848643780e+08 6.482212955341002975e-05 6.668800508293889287e-13
8.244356777512959242e+08 1.005265288229426903e-04 8.061650896689578558e-12
9.274934116180050373e+08 1.571838581314579579e-04 7.638485281852217214e-11
1.043433771499526024e+09 2.462158191799035845e-04 5.859272293883387402e-10
1.173867136809529066e+09 3.841258976241922868e-04 3.733887429712528003e-09
1.320605190783809423e+09 5.941334540106477059e-04 2.035889354874159575e-08
1.485686084257525444e+09 9.010979802330556501e-04 9.692420970136960983e-08
1.671402745014494658e+09 1.334443451881062994e-03 4.129515894599739849e-07
1.880334725917622328e+09 1.918072499115394246e-03 1.589133883857998788e-06
2.115384034182041407e+09 2.666785157043990301e-03 5.508931334181705771e-06
2.379815439449759007e+09 3.575113222928989493e-03 1.716232737922648337e-05
2.677301820533663750e+09 4.579363691645706343e-03 4.795957126877424174e-05
3.011975180684689045e+09 5.558983877719018106e-03 1.203548701130475920e-04
3.388484039969858170e+09 6.289446669496989717e-03 2.722708287832650734e-04
3.812058001925625801e+09 6.343807982140079252e-03 5.581271460995448474e-04
4.288580391299249172e+09 5.106640023495802490e-03 1.038166399454182494e-03
4.824669971796293259e+09 1.657895129839182316e-03 1.756214708008534912e-03
5.427772878871209145e+09 -4.892522607109621099e-03 2.706548302066542379e-03
6.106266044481631279e+09 -1.542319248525214626e-02 3.808151184105943669e-03
6.869573550347902298e+09 -2.911553569045046558e-02 5.012518136762844634e-03
7.728297525831991196e+09 -4.148445094101393948e-02 6.915422474883021857e-03
8.694365408571296692e+09 -3.876888099726984172e-02 1.262831017488478223e-02
9.781195613276195526e+09 1.813213070097635660e-02 3.232591961900722899e-02
1.100388390978551674e+10 2.138287274850568798e-01 9.406682622549922268e-02
1.237941309911894608e+10 7.408999597187699848e-01 2.732405948924115369e-01
1.392688889986894226e+10 1.978109765377757734e+00 7.476897188797635430e-01
1.566780532132795143e+10 4.781651156380735124e+00 1.924976882132641398e+00
1.762634320931091309e+10 1.077512420117117387e+01 4.727199295053424066e+00
1.982970611139097595e+10 2.329045505812130301e+01 1.106756709040365472e+01
2.230849812662348175e+10 4.889694337095911436e+01 2.508247376158701059e+01
2.509714898798648071e+10 1.002488648463367724e+02 5.531347485174858036e+01
2.823439228181358719e+10 2.025627551472518348e+02 1.193163004941573178e+02
3.176380344655600739e+10 4.039829384416686366e+02 2.521972265510135855e+02
3.573440502352600861e+10 7.963970612222126420e+02 5.236087693599845352e+02
4.020134756638687897e+10 1.559868868321174432e+03 1.073503166262532659e+03
4.522667566703415680e+10 3.030157918049082127e+03 2.175424451085339570e+03
5.088018973775251007e+10 5.858725442454270706e+03 4.358886166163601047e+03
5.724041551956611633e+10 1.127173991140941143e+04 8.677632014987946604e+03
6.439569478298348236e+10 2.157376551376441785e+04 1.710547914329462947e+04
7.244541237066476440e+10 4.122534284401092009e+04 3.351991678723281802e+04
8.150137662529786682e+10 7.841339926287636627e+04 6.524435366186022293e+04
9.168937237644023132e+10 1.489391512998305261e+05 1.263493199375516851e+05
1.031509080568829041e+11 2.819107261710367748e+05 2.435828692773414659e+05
1.160451812155009613e+11 5.323605615974278189e+05 4.677618009336119285e+05
