# O14 + n > C11 + a   [O14_n__C11_a]   ref=TALYS2, Koning et al. 2023
# detailed balance: alpha=0.090762 beta=0 gamma=-34.8537  Q=3.0035
# T9                 rate                error
1.000000e-03   1.439200e+08   1.000000e+02
1.018629e-03   1.438349e+08   1.000000e+02
1.037605e-03   1.437507e+08   1.000000e+02
1.056935e-03   1.436674e+08   1.000000e+02
1.076624e-03   1.435851e+08   1.000000e+02
1.096681e-03   1.435036e+08   1.000000e+02
1.117111e-03   1.434231e+08   1.000000e+02
1.137921e-03   1.433436e+08   1.000000e+02
1.159120e-03   1.432650e+08   1.000000e+02
1.180713e-03   1.431874e+08   1.000000e+02
1.202708e-03   1.431107e+08   1.000000e+02
1.225114e-03   1.430351e+08   1.000000e+02
1.247936e-03   1.429604e+08   1.000000e+02
1.271184e-03   1.428868e+08   1.000000e+02
1.294865e-03   1.428142e+08   1.000000e+02
1.318987e-03   1.427427e+08   1.000000e+02
1.343558e-03   1.426722e+08   1.000000e+02
1.368587e-03   1.426028e+08   1.000000e+02
1.394083e-03   1.425344e+08   1.000000e+02
1.420053e-03   1.424671e+08   1.000000e+02
1.446507e-03   1.424010e+08   1.000000e+02
1.473454e-03   1.423359e+08   1.000000e+02
1.500903e-03   1.422720e+08   1.000000e+02
1.528864e-03   1.422091e+08   1.000000e+02
1.557345e-03   1.421475e+08   1.000000e+02
1.586357e-03   1.420870e+08   1.000000e+02
1.615909e-03   1.420276e+08   1.000000e+02
1.646012e-03   1.419694e+08   1.000000e+02
1.676675e-03   1.419124e+08   1.000000e+02
1.707910e-03   1.418566e+08   1.000000e+02
1.739726e-03   1.418020e+08   1.000000e+02
1.772136e-03   1.417487e+08   1.000000e+02
1.805149e-03   1.416966e+08   1.000000e+02
1.838777e-03   1.416457e+08   1.000000e+02
1.873032e-03   1.415960e+08   1.000000e+02
1.907924e-03   1.415477e+08   1.000000e+02
1.943467e-03   1.415006e+08   1.000000e+02
1.979672e-03   1.414548e+08   1.000000e+02
2.016551e-03   1.414103e+08   1.000000e+02
2.054117e-03   1.413671e+08   1.000000e+02
2.092383e-03   1.413253e+08   1.000000e+02
2.131362e-03   1.412847e+08   1.000000e+02
2.171068e-03   1.412455e+08   1.000000e+02
2.211512e-03   1.412077e+08   1.000000e+02
2.252711e-03   1.411713e+08   1.000000e+02
2.294676e-03   1.411362e+08   1.000000e+02
2.337424e-03   1.411025e+08   1.000000e+02
2.380968e-03   1.410703e+08   1.000000e+02
2.425323e-03   1.410394e+08   1.000000e+02
2.470504e-03   1.410100e+08   1.000000e+02
2.516527e-03   1.409820e+08   1.000000e+02
2.563407e-03   1.409555e+08   1.000000e+02
2.611161e-03   1.409304e+08   1.000000e+02
2.659804e-03   1.409068e+08   1.000000e+02
2.709354e-03   1.408847e+08   1.000000e+02
2.759826e-03   1.408641e+08   1.000000e+02
2.811239e-03   1.408450e+08   1.000000e+02
2.863610e-03   1.408274e+08   1.000000e+02
2.916956e-03   1.408114e+08   1.000000e+02
2.971296e-03   1.407969e+08   1.000000e+02
3.026648e-03   1.407840e+08   1.000000e+02
3.083031e-03   1.407737e+08   1.000000e+02
3.140465e-03   1.407677e+08   1.000000e+02
3.198969e-03   1.407679e+08   1.000000e+02
3.258562e-03   1.407763e+08   1.000000e+02
3.319266e-03   1.407948e+08   1.000000e+02
3.381101e-03   1.408252e+08   1.000000e+02
3.444087e-03   1.408695e+08   1.000000e+02
3.508247e-03   1.409295e+08   1.000000e+02
3.573602e-03   1.410073e+08   1.000000e+02
3.640175e-03   1.411046e+08   1.000000e+02
3.707988e-03   1.412235e+08   1.000000e+02
3.777064e-03   1.413659e+08   1.000000e+02
3.847427e-03   1.415338e+08   1.000000e+02
3.919100e-03   1.417292e+08   1.000000e+02
3.992109e-03   1.419541e+08   1.000000e+02
4.066478e-03   1.422094e+08   1.000000e+02
4.142232e-03   1.424900e+08   1.000000e+02
4.219398e-03   1.427883e+08   1.000000e+02
4.298001e-03   1.430970e+08   1.000000e+02
4.378069e-03   1.434086e+08   1.000000e+02
4.459628e-03   1.437153e+08   1.000000e+02
4.542706e-03   1.440097e+08   1.000000e+02
4.627332e-03   1.442839e+08   1.000000e+02
4.713535e-03   1.445302e+08   1.000000e+02
4.801343e-03   1.447409e+08   1.000000e+02
4.890787e-03   1.449081e+08   1.000000e+02
4.981898e-03   1.450239e+08   1.000000e+02
5.074705e-03   1.450820e+08   1.000000e+02
5.169242e-03   1.450854e+08   1.000000e+02
5.265540e-03   1.450415e+08   1.000000e+02
5.363631e-03   1.449579e+08   1.000000e+02
5.463550e-03   1.448420e+08   1.000000e+02
5.565331e-03   1.447015e+08   1.000000e+02
5.669007e-03   1.445437e+08   1.000000e+02
5.774615e-03   1.443762e+08   1.000000e+02
5.882190e-03   1.442065e+08   1.000000e+02
5.991770e-03   1.440418e+08   1.000000e+02
6.103390e-03   1.438884e+08   1.000000e+02
6.217090e-03   1.437453e+08   1.000000e+02
6.332908e-03   1.436096e+08   1.000000e+02
6.450884e-03   1.434786e+08   1.000000e+02
6.571058e-03   1.433493e+08   1.000000e+02
6.693470e-03   1.432188e+08   1.000000e+02
6.818162e-03   1.430843e+08   1.000000e+02
6.945178e-03   1.429430e+08   1.000000e+02
7.074559e-03   1.427921e+08   1.000000e+02
7.206351e-03   1.426311e+08   1.000000e+02
7.340598e-03   1.424612e+08   1.000000e+02
7.477346e-03   1.422838e+08   1.000000e+02
7.616642e-03   1.421000e+08   1.000000e+02
7.758532e-03   1.419112e+08   1.000000e+02
7.903066e-03   1.417187e+08   1.000000e+02
8.050292e-03   1.415235e+08   1.000000e+02
8.200261e-03   1.413253e+08   1.000000e+02
8.353023e-03   1.411208e+08   1.000000e+02
8.508632e-03   1.409065e+08   1.000000e+02
8.667139e-03   1.406791e+08   1.000000e+02
8.828599e-03   1.404352e+08   1.000000e+02
8.993067e-03   1.401715e+08   1.000000e+02
9.160598e-03   1.398869e+08   1.000000e+02
9.331251e-03   1.395909e+08   1.000000e+02
9.505083e-03   1.392960e+08   1.000000e+02
9.682153e-03   1.390144e+08   1.000000e+02
9.862522e-03   1.387582e+08   1.000000e+02
1.004625e-02   1.385395e+08   1.000000e+02
1.023340e-02   1.383626e+08   1.000000e+02
1.042404e-02   1.382171e+08   1.000000e+02
1.061823e-02   1.380910e+08   1.000000e+02
1.081604e-02   1.379723e+08   1.000000e+02
1.101753e-02   1.378489e+08   1.000000e+02
1.122277e-02   1.377123e+08   1.000000e+02
1.143184e-02   1.375644e+08   1.000000e+02
1.164481e-02   1.374090e+08   1.000000e+02
1.186174e-02   1.372500e+08   1.000000e+02
1.208271e-02   1.370911e+08   1.000000e+02
1.230780e-02   1.369341e+08   1.000000e+02
1.253708e-02   1.367780e+08   1.000000e+02
1.277063e-02   1.366218e+08   1.000000e+02
1.300854e-02   1.364644e+08   1.000000e+02
1.325087e-02   1.363048e+08   1.000000e+02
1.349772e-02   1.361433e+08   1.000000e+02
1.374917e-02   1.359804e+08   1.000000e+02
1.400531e-02   1.358166e+08   1.000000e+02
1.426621e-02   1.356522e+08   1.000000e+02
1.453198e-02   1.354870e+08   1.000000e+02
1.480269e-02   1.353205e+08   1.000000e+02
1.507845e-02   1.351523e+08   1.000000e+02
1.535935e-02   1.349823e+08   1.000000e+02
1.564548e-02   1.348105e+08   1.000000e+02
1.593694e-02   1.346373e+08   1.000000e+02
1.623382e-02   1.344626e+08   1.000000e+02
1.653624e-02   1.342867e+08   1.000000e+02
1.684430e-02   1.341099e+08   1.000000e+02
1.715809e-02   1.339324e+08   1.000000e+02
1.747773e-02   1.337544e+08   1.000000e+02
1.780332e-02   1.335761e+08   1.000000e+02
1.813498e-02   1.333978e+08   1.000000e+02
1.847281e-02   1.332196e+08   1.000000e+02
1.881694e-02   1.330412e+08   1.000000e+02
1.916748e-02   1.328627e+08   1.000000e+02
1.952456e-02   1.326838e+08   1.000000e+02
1.988828e-02   1.325045e+08   1.000000e+02
2.025878e-02   1.323247e+08   1.000000e+02
2.063618e-02   1.321445e+08   1.000000e+02
2.102061e-02   1.319642e+08   1.000000e+02
2.141220e-02   1.317842e+08   1.000000e+02
2.181109e-02   1.316046e+08   1.000000e+02
2.221741e-02   1.314258e+08   1.000000e+02
2.263130e-02   1.312481e+08   1.000000e+02
2.305289e-02   1.310717e+08   1.000000e+02
2.348235e-02   1.308970e+08   1.000000e+02
2.391980e-02   1.307241e+08   1.000000e+02
2.436540e-02   1.305535e+08   1.000000e+02
2.481930e-02   1.303854e+08   1.000000e+02
2.528166e-02   1.302199e+08   1.000000e+02
2.575263e-02   1.300571e+08   1.000000e+02
2.623238e-02   1.298967e+08   1.000000e+02
2.672106e-02   1.297383e+08   1.000000e+02
2.721885e-02   1.295815e+08   1.000000e+02
2.772591e-02   1.294261e+08   1.000000e+02
2.824241e-02   1.292717e+08   1.000000e+02
2.876854e-02   1.291180e+08   1.000000e+02
2.930447e-02   1.289647e+08   1.000000e+02
2.985038e-02   1.288115e+08   1.000000e+02
3.040646e-02   1.286582e+08   1.000000e+02
3.097291e-02   1.285058e+08   1.000000e+02
3.154990e-02   1.283558e+08   1.000000e+02
3.213764e-02   1.282101e+08   1.000000e+02
3.273634e-02   1.280701e+08   1.000000e+02
3.334618e-02   1.279376e+08   1.000000e+02
3.396739e-02   1.278141e+08   1.000000e+02
3.460016e-02   1.277013e+08   1.000000e+02
3.524473e-02   1.276007e+08   1.000000e+02
3.590130e-02   1.275140e+08   1.000000e+02
3.657011e-02   1.274429e+08   1.000000e+02
3.725137e-02   1.273888e+08   1.000000e+02
3.794533e-02   1.273534e+08   1.000000e+02
3.865221e-02   1.273384e+08   1.000000e+02
3.937226e-02   1.273453e+08   1.000000e+02
4.010573e-02   1.273759e+08   1.000000e+02
4.085286e-02   1.274300e+08   1.000000e+02
4.161391e-02   1.275033e+08   1.000000e+02
4.238913e-02   1.275905e+08   1.000000e+02
4.317880e-02   1.276866e+08   1.000000e+02
4.398317e-02   1.277862e+08   1.000000e+02
4.480254e-02   1.278844e+08   1.000000e+02
4.563716e-02   1.279757e+08   1.000000e+02
4.648734e-02   1.280551e+08   1.000000e+02
4.735335e-02   1.281172e+08   1.000000e+02
4.823549e-02   1.281569e+08   1.000000e+02
4.913407e-02   1.281689e+08   1.000000e+02
5.004939e-02   1.281480e+08   1.000000e+02
5.098176e-02   1.280909e+08   1.000000e+02
5.193150e-02   1.280012e+08   1.000000e+02
5.289893e-02   1.278837e+08   1.000000e+02
5.388438e-02   1.277436e+08   1.000000e+02
5.488820e-02   1.275856e+08   1.000000e+02
5.591071e-02   1.274148e+08   1.000000e+02
5.695227e-02   1.272359e+08   1.000000e+02
5.801323e-02   1.270540e+08   1.000000e+02
5.909396e-02   1.268738e+08   1.000000e+02
6.019482e-02   1.267002e+08   1.000000e+02
6.131619e-02   1.265363e+08   1.000000e+02
6.245845e-02   1.263811e+08   1.000000e+02
6.362198e-02   1.262334e+08   1.000000e+02
6.480720e-02   1.260914e+08   1.000000e+02
6.601449e-02   1.259539e+08   1.000000e+02
6.724427e-02   1.258194e+08   1.000000e+02
6.849697e-02   1.256864e+08   1.000000e+02
6.977300e-02   1.255535e+08   1.000000e+02
7.107280e-02   1.254194e+08   1.000000e+02
7.239681e-02   1.252842e+08   1.000000e+02
7.374549e-02   1.251481e+08   1.000000e+02
7.511929e-02   1.250117e+08   1.000000e+02
7.651869e-02   1.248754e+08   1.000000e+02
7.794416e-02   1.247397e+08   1.000000e+02
7.939618e-02   1.246049e+08   1.000000e+02
8.087525e-02   1.244716e+08   1.000000e+02
8.238187e-02   1.243404e+08   1.000000e+02
8.391656e-02   1.242122e+08   1.000000e+02
8.547985e-02   1.240880e+08   1.000000e+02
8.707225e-02   1.239687e+08   1.000000e+02
8.869432e-02   1.238552e+08   1.000000e+02
9.034660e-02   1.237483e+08   1.000000e+02
9.202967e-02   1.236479e+08   1.000000e+02
9.374409e-02   1.235508e+08   1.000000e+02
9.549045e-02   1.234539e+08   1.000000e+02
9.726934e-02   1.233536e+08   1.000000e+02
9.908137e-02   1.232469e+08   1.000000e+02
1.009272e-01   1.231304e+08   1.000000e+02
1.028073e-01   1.230040e+08   1.000000e+02
1.047225e-01   1.228703e+08   1.000000e+02
1.066734e-01   1.227322e+08   1.000000e+02
1.086606e-01   1.225924e+08   1.000000e+02
1.106848e-01   1.224536e+08   1.000000e+02
1.127468e-01   1.223174e+08   1.000000e+02
1.148472e-01   1.221834e+08   1.000000e+02
1.169866e-01   1.220510e+08   1.000000e+02
1.191660e-01   1.219195e+08   1.000000e+02
1.213859e-01   1.217886e+08   1.000000e+02
1.236472e-01   1.216581e+08   1.000000e+02
1.259506e-01   1.215286e+08   1.000000e+02
1.282970e-01   1.214005e+08   1.000000e+02
1.306870e-01   1.212741e+08   1.000000e+02
1.331216e-01   1.211498e+08   1.000000e+02
1.356015e-01   1.210274e+08   1.000000e+02
1.381276e-01   1.209068e+08   1.000000e+02
1.407008e-01   1.207880e+08   1.000000e+02
1.433219e-01   1.206709e+08   1.000000e+02
1.459919e-01   1.205556e+08   1.000000e+02
1.487115e-01   1.204423e+08   1.000000e+02
1.514819e-01   1.203310e+08   1.000000e+02
1.543038e-01   1.202216e+08   1.000000e+02
1.571784e-01   1.201135e+08   1.000000e+02
1.601064e-01   1.200061e+08   1.000000e+02
1.630891e-01   1.198992e+08   1.000000e+02
1.661273e-01   1.197929e+08   1.000000e+02
1.692220e-01   1.196877e+08   1.000000e+02
1.723745e-01   1.195842e+08   1.000000e+02
1.755856e-01   1.194826e+08   1.000000e+02
1.788566e-01   1.193836e+08   1.000000e+02
1.821885e-01   1.192874e+08   1.000000e+02
1.855825e-01   1.191940e+08   1.000000e+02
1.890397e-01   1.191033e+08   1.000000e+02
1.925614e-01   1.190150e+08   1.000000e+02
1.961486e-01   1.189288e+08   1.000000e+02
1.998026e-01   1.188445e+08   1.000000e+02
2.035248e-01   1.187617e+08   1.000000e+02
2.073162e-01   1.186806e+08   1.000000e+02
2.111783e-01   1.186010e+08   1.000000e+02
2.151123e-01   1.185228e+08   1.000000e+02
2.191197e-01   1.184462e+08   1.000000e+02
2.232016e-01   1.183710e+08   1.000000e+02
2.273597e-01   1.182973e+08   1.000000e+02
2.315951e-01   1.182250e+08   1.000000e+02
2.359095e-01   1.181541e+08   1.000000e+02
2.403043e-01   1.180845e+08   1.000000e+02
2.447809e-01   1.180163e+08   1.000000e+02
2.493409e-01   1.179495e+08   1.000000e+02
2.539859e-01   1.178839e+08   1.000000e+02
2.587174e-01   1.178195e+08   1.000000e+02
2.635371e-01   1.177563e+08   1.000000e+02
2.684465e-01   1.176942e+08   1.000000e+02
2.734474e-01   1.176332e+08   1.000000e+02
2.785414e-01   1.175731e+08   1.000000e+02
2.837304e-01   1.175139e+08   1.000000e+02
2.890160e-01   1.174556e+08   1.000000e+02
2.944000e-01   1.173980e+08   1.000000e+02
2.998844e-01   1.173412e+08   1.000000e+02
3.054710e-01   1.172850e+08   1.000000e+02
3.111616e-01   1.172294e+08   1.000000e+02
3.169582e-01   1.171744e+08   1.000000e+02
3.228628e-01   1.171201e+08   1.000000e+02
3.288774e-01   1.170664e+08   1.000000e+02
3.350041e-01   1.170134e+08   1.000000e+02
3.412449e-01   1.169609e+08   1.000000e+02
3.476019e-01   1.169091e+08   1.000000e+02
3.540774e-01   1.168579e+08   1.000000e+02
3.606735e-01   1.168073e+08   1.000000e+02
3.673925e-01   1.167572e+08   1.000000e+02
3.742366e-01   1.167074e+08   1.000000e+02
3.812083e-01   1.166580e+08   1.000000e+02
3.883098e-01   1.166088e+08   1.000000e+02
3.955436e-01   1.165597e+08   1.000000e+02
4.029122e-01   1.165107e+08   1.000000e+02
4.104181e-01   1.164619e+08   1.000000e+02
4.180637e-01   1.164134e+08   1.000000e+02
4.258518e-01   1.163657e+08   1.000000e+02
4.337850e-01   1.163189e+08   1.000000e+02
4.418660e-01   1.162734e+08   1.000000e+02
4.500975e-01   1.162295e+08   1.000000e+02
4.584824e-01   1.161874e+08   1.000000e+02
4.670234e-01   1.161469e+08   1.000000e+02
4.757236e-01   1.161081e+08   1.000000e+02
4.845859e-01   1.160707e+08   1.000000e+02
4.936132e-01   1.160345e+08   1.000000e+02
5.028087e-01   1.159995e+08   1.000000e+02
5.121755e-01   1.159656e+08   1.000000e+02
5.217169e-01   1.159330e+08   1.000000e+02
5.314359e-01   1.159019e+08   1.000000e+02
5.413360e-01   1.158725e+08   1.000000e+02
5.514206e-01   1.158451e+08   1.000000e+02
5.616930e-01   1.158198e+08   1.000000e+02
5.721568e-01   1.157969e+08   1.000000e+02
5.828155e-01   1.157765e+08   1.000000e+02
5.936727e-01   1.157588e+08   1.000000e+02
6.047322e-01   1.157441e+08   1.000000e+02
6.159978e-01   1.157326e+08   1.000000e+02
6.274732e-01   1.157243e+08   1.000000e+02
6.391624e-01   1.157195e+08   1.000000e+02
6.510694e-01   1.157182e+08   1.000000e+02
6.631981e-01   1.157206e+08   1.000000e+02
6.755528e-01   1.157268e+08   1.000000e+02
6.881377e-01   1.157369e+08   1.000000e+02
7.009570e-01   1.157512e+08   1.000000e+02
7.140151e-01   1.157697e+08   1.000000e+02
7.273165e-01   1.157924e+08   1.000000e+02
7.408657e-01   1.158195e+08   1.000000e+02
7.546673e-01   1.158510e+08   1.000000e+02
7.687260e-01   1.158869e+08   1.000000e+02
7.830465e-01   1.159274e+08   1.000000e+02
7.976339e-01   1.159724e+08   1.000000e+02
8.124930e-01   1.160220e+08   1.000000e+02
8.276289e-01   1.160764e+08   1.000000e+02
8.430468e-01   1.161358e+08   1.000000e+02
8.587519e-01   1.162005e+08   1.000000e+02
8.747496e-01   1.162706e+08   1.000000e+02
8.910453e-01   1.163465e+08   1.000000e+02
9.076446e-01   1.164282e+08   1.000000e+02
9.245531e-01   1.165160e+08   1.000000e+02
9.417766e-01   1.166101e+08   1.000000e+02
9.593209e-01   1.167104e+08   1.000000e+02
9.771921e-01   1.168172e+08   1.000000e+02
9.953962e-01   1.169306e+08   1.000000e+02
1.013939e+00   1.170507e+08   1.000000e+02
1.032828e+00   1.171775e+08   1.000000e+02
1.052069e+00   1.173112e+08   1.000000e+02
1.071668e+00   1.174519e+08   1.000000e+02
1.091632e+00   1.175997e+08   1.000000e+02
1.111968e+00   1.177546e+08   1.000000e+02
1.132683e+00   1.179168e+08   1.000000e+02
1.153783e+00   1.180864e+08   1.000000e+02
1.175277e+00   1.182634e+08   1.000000e+02
1.197171e+00   1.184480e+08   1.000000e+02
1.219473e+00   1.186402e+08   1.000000e+02
1.242191e+00   1.188403e+08   1.000000e+02
1.265332e+00   1.190482e+08   1.000000e+02
1.288904e+00   1.192642e+08   1.000000e+02
1.312915e+00   1.194883e+08   1.000000e+02
1.337373e+00   1.197207e+08   1.000000e+02
1.362287e+00   1.199615e+08   1.000000e+02
1.387665e+00   1.202109e+08   1.000000e+02
1.413516e+00   1.204689e+08   1.000000e+02
1.439848e+00   1.207359e+08   1.000000e+02
1.466671e+00   1.210118e+08   1.000000e+02
1.493993e+00   1.212968e+08   1.000000e+02
1.521825e+00   1.215912e+08   1.000000e+02
1.550175e+00   1.218951e+08   1.000000e+02
1.579053e+00   1.222088e+08   1.000000e+02
1.608469e+00   1.225327e+08   1.000000e+02
1.638434e+00   1.228670e+08   1.000000e+02
1.668956e+00   1.232121e+08   1.000000e+02
1.700047e+00   1.235682e+08   1.000000e+02
1.731717e+00   1.239357e+08   1.000000e+02
1.763977e+00   1.243149e+08   1.000000e+02
1.796838e+00   1.247058e+08   1.000000e+02
1.830312e+00   1.251084e+08   1.000000e+02
1.864409e+00   1.255226e+08   1.000000e+02
1.899141e+00   1.259480e+08   1.000000e+02
1.934520e+00   1.263847e+08   1.000000e+02
1.970558e+00   1.268324e+08   1.000000e+02
2.007267e+00   1.272910e+08   1.000000e+02
2.044661e+00   1.277604e+08   1.000000e+02
2.082751e+00   1.282408e+08   1.000000e+02
2.121550e+00   1.287322e+08   1.000000e+02
2.161073e+00   1.292350e+08   1.000000e+02
2.201331e+00   1.297492e+08   1.000000e+02
2.242340e+00   1.302751e+08   1.000000e+02
2.284112e+00   1.308128e+08   1.000000e+02
2.326663e+00   1.313624e+08   1.000000e+02
2.370006e+00   1.319243e+08   1.000000e+02
2.414157e+00   1.324985e+08   1.000000e+02
2.459130e+00   1.330852e+08   1.000000e+02
2.504942e+00   1.336848e+08   1.000000e+02
2.551606e+00   1.342972e+08   1.000000e+02
2.599140e+00   1.349226e+08   1.000000e+02
2.647559e+00   1.355611e+08   1.000000e+02
2.696881e+00   1.362126e+08   1.000000e+02
2.747121e+00   1.368773e+08   1.000000e+02
2.798297e+00   1.375551e+08   1.000000e+02
2.850426e+00   1.382460e+08   1.000000e+02
2.903527e+00   1.389503e+08   1.000000e+02
2.957617e+00   1.396678e+08   1.000000e+02
3.012714e+00   1.403986e+08   1.000000e+02
3.068838e+00   1.411429e+08   1.000000e+02
3.126007e+00   1.419005e+08   1.000000e+02
3.184242e+00   1.426714e+08   1.000000e+02
3.243561e+00   1.434558e+08   1.000000e+02
3.303985e+00   1.442534e+08   1.000000e+02
3.365535e+00   1.450644e+08   1.000000e+02
3.428231e+00   1.458888e+08   1.000000e+02
3.492096e+00   1.467265e+08   1.000000e+02
3.557150e+00   1.475775e+08   1.000000e+02
3.623416e+00   1.484418e+08   1.000000e+02
3.690917e+00   1.493195e+08   1.000000e+02
3.759675e+00   1.502106e+08   1.000000e+02
3.829714e+00   1.511151e+08   1.000000e+02
3.901058e+00   1.520329e+08   1.000000e+02
3.973730e+00   1.529643e+08   1.000000e+02
4.047757e+00   1.539090e+08   1.000000e+02
4.123163e+00   1.548671e+08   1.000000e+02
4.199973e+00   1.558383e+08   1.000000e+02
4.278214e+00   1.568223e+08   1.000000e+02
4.357913e+00   1.578189e+08   1.000000e+02
4.439097e+00   1.588279e+08   1.000000e+02
4.521792e+00   1.598490e+08   1.000000e+02
4.606029e+00   1.608818e+08   1.000000e+02
4.691835e+00   1.619262e+08   1.000000e+02
4.779239e+00   1.629819e+08   1.000000e+02
