# Be11 + t > B13 + n   [Be11_t__B13_n]   ref=TALYS2
# detailed balance: alpha=2.0141 beta=0 gamma=-121.735  Q=10.4903
# T9                 rate                error
1.000000e-03 1.000000e-35 1.000000e+02
1.018629e-03 1.062376e-35 1.000000e+02
1.037605e-03 1.131001e-35 1.000000e+02
1.056935e-03 1.206668e-35 1.000000e+02
1.076624e-03 1.290286e-35 1.000000e+02
1.096681e-03 1.382901e-35 1.000000e+02
1.117111e-03 1.485719e-35 1.000000e+02
1.137921e-03 1.600134e-35 1.000000e+02
1.159120e-03 1.727760e-35 1.000000e+02
1.180713e-03 1.870474e-35 1.000000e+02
1.202708e-03 2.030459e-35 1.000000e+02
1.225114e-03 2.210267e-35 1.000000e+02
1.247936e-03 2.412887e-35 1.000000e+02
1.271184e-03 2.641826e-35 1.000000e+02
1.294865e-03 2.901215e-35 1.000000e+02
1.318987e-03 3.195934e-35 1.000000e+02
1.343558e-03 3.531760e-35 1.000000e+02
1.368587e-03 3.915558e-35 1.000000e+02
1.394083e-03 4.355507e-35 1.000000e+02
1.420053e-03 4.861383e-35 1.000000e+02
1.446507e-03 5.444908e-35 1.000000e+02
1.473454e-03 6.120183e-35 1.000000e+02
1.500903e-03 6.904225e-35 1.000000e+02
1.528864e-03 7.817637e-35 1.000000e+02
1.557345e-03 8.885457e-35 1.000000e+02
1.586357e-03 1.013821e-34 1.000000e+02
1.615909e-03 1.161324e-34 1.000000e+02
1.646012e-03 1.335640e-34 1.000000e+02
1.676675e-03 1.542423e-34 1.000000e+02
1.707910e-03 1.788663e-34 1.000000e+02
1.739726e-03 2.083043e-34 1.000000e+02
1.772136e-03 2.436387e-34 1.000000e+02
1.805149e-03 2.862239e-34 1.000000e+02
1.838777e-03 3.377621e-34 1.000000e+02
1.873032e-03 4.004004e-34 1.000000e+02
1.907924e-03 4.768595e-34 1.000000e+02
1.943467e-03 5.706004e-34 1.000000e+02
1.979672e-03 6.860456e-34 1.000000e+02
2.016551e-03 8.288705e-34 1.000000e+02
2.054117e-03 1.006391e-33 1.000000e+02
2.092383e-03 1.228079e-33 1.000000e+02
2.131362e-03 1.506258e-33 1.000000e+02
2.171068e-03 1.857032e-33 1.000000e+02
2.211512e-03 2.301545e-33 1.000000e+02
2.252711e-03 2.867698e-33 1.000000e+02
2.294676e-03 3.592483e-33 1.000000e+02
2.337424e-03 4.525191e-33 1.000000e+02
2.380968e-03 5.731831e-33 1.000000e+02
2.425323e-03 7.301259e-33 1.000000e+02
2.470504e-03 9.353701e-33 1.000000e+02
2.516527e-03 1.205269e-32 1.000000e+02
2.563407e-03 1.562187e-32 1.000000e+02
2.611161e-03 2.036873e-32 1.000000e+02
2.659804e-03 2.671839e-32 1.000000e+02
2.709354e-03 3.526188e-32 1.000000e+02
2.759826e-03 4.682558e-32 1.000000e+02
2.811239e-03 6.257152e-32 1.000000e+02
2.863610e-03 8.414333e-32 1.000000e+02
2.916956e-03 1.138795e-31 1.000000e+02
2.971296e-03 1.551272e-31 1.000000e+02
3.026648e-03 2.127116e-31 1.000000e+02
3.083031e-03 2.938151e-31 1.000000e+02
3.140465e-03 4.093976e-31 1.000000e+02
3.198969e-03 5.762722e-31 1.000000e+02
3.258562e-03 8.206230e-31 1.000000e+02
3.319266e-03 1.183903e-30 1.000000e+02
3.381101e-03 1.732877e-30 1.000000e+02
3.444087e-03 2.577039e-30 1.000000e+02
3.508247e-03 3.899407e-30 1.000000e+02
3.573602e-03 6.012060e-30 1.000000e+02
3.640175e-03 9.458401e-30 1.000000e+02
3.707988e-03 1.520563e-29 1.000000e+02
3.777064e-03 2.501533e-29 1.000000e+02
3.847427e-03 4.217410e-29 1.000000e+02
3.919100e-03 7.297023e-29 1.000000e+02
3.992109e-03 1.297563e-28 1.000000e+02
4.066478e-03 2.372902e-28 1.000000e+02
4.142232e-03 4.446511e-28 1.000000e+02
4.219398e-03 8.494298e-28 1.000000e+02
4.298001e-03 1.645824e-27 1.000000e+02
4.378069e-03 3.217852e-27 1.000000e+02
4.459628e-03 6.316189e-27 1.000000e+02
4.542706e-03 1.238311e-26 1.000000e+02
4.627332e-03 2.412510e-26 1.000000e+02
4.713535e-03 4.646785e-26 1.000000e+02
4.801343e-03 8.803581e-26 1.000000e+02
4.890787e-03 1.632183e-25 1.000000e+02
4.981898e-03 2.946186e-25 1.000000e+02
5.074705e-03 5.155791e-25 1.000000e+02
5.169242e-03 8.766633e-25 1.000000e+02
5.265540e-03 1.455701e-24 1.000000e+02
5.363631e-03 2.372570e-24 1.000000e+02
5.463550e-03 3.814858e-24 1.000000e+02
5.565331e-03 6.082128e-24 1.000000e+02
5.669007e-03 9.663975e-24 1.000000e+02
5.774615e-03 1.538100e-23 1.000000e+02
5.882190e-03 2.464603e-23 1.000000e+02
5.991770e-03 3.996210e-23 1.000000e+02
6.103390e-03 6.584299e-23 1.000000e+02
6.217090e-03 1.102119e-22 1.000000e+02
6.332908e-03 1.871128e-22 1.000000e+02
6.450884e-03 3.216853e-22 1.000000e+02
6.571058e-03 5.591260e-22 1.000000e+02
6.693470e-03 9.809263e-22 1.000000e+02
6.818162e-03 1.734238e-21 1.000000e+02
6.945178e-03 3.084782e-21 1.000000e+02
7.074559e-03 5.511875e-21 1.000000e+02
7.206351e-03 9.884517e-21 1.000000e+02
7.340598e-03 1.778553e-20 1.000000e+02
7.477346e-03 3.210075e-20 1.000000e+02
7.616642e-03 5.810082e-20 1.000000e+02
7.758532e-03 1.054265e-19 1.000000e+02
7.903066e-03 1.917340e-19 1.000000e+02
8.050292e-03 3.493989e-19 1.000000e+02
8.200261e-03 6.386363e-19 1.000000e+02
8.353023e-03 1.174255e-18 1.000000e+02
8.508632e-03 2.178642e-18 1.000000e+02
8.667139e-03 4.091293e-18 1.000000e+02
8.828599e-03 7.800536e-18 1.000000e+02
8.993067e-03 1.514658e-17 1.000000e+02
9.160598e-03 2.996353e-17 1.000000e+02
9.331251e-03 5.967485e-17 1.000000e+02
9.505083e-03 1.178235e-16 1.000000e+02
9.682153e-03 2.271100e-16 1.000000e+02
9.862522e-03 4.208490e-16 1.000000e+02
1.004625e-02 7.383485e-16 1.000000e+02
1.023340e-02 1.220474e-15 1.000000e+02
1.042404e-02 1.930223e-15 1.000000e+02
1.061823e-02 2.972958e-15 1.000000e+02
1.081604e-02 4.539028e-15 1.000000e+02
1.101753e-02 6.992285e-15 1.000000e+02
1.122277e-02 1.100777e-14 1.000000e+02
1.143184e-02 1.766453e-14 1.000000e+02
1.164481e-02 2.873727e-14 1.000000e+02
1.186174e-02 4.713539e-14 1.000000e+02
1.208271e-02 7.752670e-14 1.000000e+02
1.230780e-02 1.275308e-13 1.000000e+02
1.253708e-02 2.100828e-13 1.000000e+02
1.277063e-02 3.471016e-13 1.000000e+02
1.300854e-02 5.760921e-13 1.000000e+02
1.325087e-02 9.616136e-13 1.000000e+02
1.349772e-02 1.613837e-12 1.000000e+02
1.374917e-02 2.721479e-12 1.000000e+02
1.400531e-02 4.608639e-12 1.000000e+02
1.426621e-02 7.833273e-12 1.000000e+02
1.453198e-02 1.336179e-11 1.000000e+02
1.480269e-02 2.287308e-11 1.000000e+02
1.507845e-02 3.929255e-11 1.000000e+02
1.535935e-02 6.773098e-11 1.000000e+02
1.564548e-02 1.171345e-10 1.000000e+02
1.593694e-02 2.032018e-10 1.000000e+02
1.623382e-02 3.535353e-10 1.000000e+02
1.653624e-02 6.166864e-10 1.000000e+02
1.684430e-02 1.078103e-09 1.000000e+02
1.715809e-02 1.888244e-09 1.000000e+02
1.747773e-02 3.312046e-09 1.000000e+02
1.780332e-02 5.815843e-09 1.000000e+02
1.813498e-02 1.021991e-08 1.000000e+02
1.847281e-02 1.796846e-08 1.000000e+02
1.881694e-02 3.160888e-08 1.000000e+02
1.916748e-02 5.563548e-08 1.000000e+02
1.952456e-02 9.798271e-08 1.000000e+02
1.988828e-02 1.726682e-07 1.000000e+02
2.025878e-02 3.044543e-07 1.000000e+02
2.063618e-02 5.367348e-07 1.000000e+02
2.102061e-02 9.449898e-07 1.000000e+02
2.141220e-02 1.659678e-06 1.000000e+02
2.181109e-02 2.904354e-06 1.000000e+02
2.221741e-02 5.058288e-06 1.000000e+02
2.263130e-02 8.757610e-06 1.000000e+02
2.305289e-02 1.505550e-05 1.000000e+02
2.348235e-02 2.567035e-05 1.000000e+02
2.391980e-02 4.336059e-05 1.000000e+02
2.436540e-02 7.247441e-05 1.000000e+02
2.481930e-02 1.197292e-04 1.000000e+02
2.528166e-02 1.952904e-04 1.000000e+02
2.575263e-02 3.145968e-04 1.000000e+02
2.623238e-02 5.011768e-04 1.000000e+02
2.672106e-02 7.906284e-04 1.000000e+02
2.721885e-02 1.236745e-03 1.000000e+02
2.772591e-02 1.920862e-03 1.000000e+02
2.824241e-02 2.966208e-03 1.000000e+02
2.876854e-02 4.560141e-03 1.000000e+02
2.930447e-02 6.988881e-03 1.000000e+02
2.985038e-02 1.069231e-02 1.000000e+02
3.040646e-02 1.634275e-02 1.000000e+02
3.097291e-02 2.485510e-02 1.000000e+02
3.154990e-02 3.736275e-02 1.000000e+02
3.213764e-02 5.514171e-02 1.000000e+02
3.273634e-02 7.936418e-02 1.000000e+02
3.334618e-02 1.106514e-01 1.000000e+02
3.396739e-02 1.484438e-01 1.000000e+02
3.460016e-02 1.903378e-01 1.000000e+02
3.524473e-02 2.317027e-01 1.000000e+02
3.590130e-02 2.659897e-01 1.000000e+02
3.657011e-02 2.860299e-01 1.000000e+02
3.725137e-02 2.861909e-01 1.000000e+02
3.794533e-02 2.646567e-01 1.000000e+02
3.865221e-02 2.246868e-01 1.000000e+02
3.937226e-02 1.739502e-01 1.000000e+02
4.010573e-02 1.219877e-01 1.000000e+02
4.085286e-02 7.750041e-02 1.000000e+02
4.161391e-02 4.541646e-02 1.000000e+02
4.238913e-02 2.506841e-02 1.000000e+02
4.317880e-02 1.330845e-02 1.000000e+02
4.398317e-02 6.939017e-03 1.000000e+02
4.480254e-02 3.628450e-03 1.000000e+02
4.563716e-02 1.943032e-03 1.000000e+02
4.648734e-02 1.088071e-03 1.000000e+02
4.735335e-02 6.506326e-04 1.000000e+02
4.823549e-02 4.242272e-04 1.000000e+02
4.913407e-02 3.079840e-04 1.000000e+02
5.004939e-02 2.542186e-04 1.000000e+02
5.098176e-02 2.417076e-04 1.000000e+02
5.193150e-02 2.610645e-04 1.000000e+02
5.289893e-02 3.140961e-04 1.000000e+02
5.388438e-02 4.127794e-04 1.000000e+02
5.488820e-02 5.810280e-04 1.000000e+02
5.591071e-02 8.589797e-04 1.000000e+02
5.695227e-02 1.307852e-03 1.000000e+02
5.801323e-02 2.010978e-03 1.000000e+02
5.909396e-02 3.062049e-03 1.000000e+02
6.019482e-02 4.527580e-03 1.000000e+02
6.131619e-02 6.418547e-03 1.000000e+02
6.245845e-02 8.755857e-03 1.000000e+02
6.362198e-02 1.156288e-02 1.000000e+02
6.480720e-02 1.487142e-02 1.000000e+02
6.601449e-02 1.874014e-02 1.000000e+02
6.724427e-02 2.327772e-02 1.000000e+02
6.849697e-02 2.867278e-02 1.000000e+02
6.977300e-02 3.523504e-02 1.000000e+02
7.107280e-02 4.342556e-02 1.000000e+02
7.239681e-02 5.368511e-02 1.000000e+02
7.374549e-02 6.644203e-02 1.000000e+02
7.511929e-02 8.215844e-02 1.000000e+02
7.651869e-02 1.013028e-01 1.000000e+02
7.794416e-02 1.243056e-01 1.000000e+02
7.939618e-02 1.514953e-01 1.000000e+02
8.087525e-02 1.830031e-01 1.000000e+02
8.238187e-02 2.184414e-01 1.000000e+02
8.391656e-02 2.566512e-01 1.000000e+02
8.547985e-02 2.956573e-01 1.000000e+02
8.707225e-02 3.326411e-01 1.000000e+02
8.869432e-02 3.640912e-01 1.000000e+02
9.034660e-02 3.861972e-01 1.000000e+02
9.202967e-02 3.976473e-01 1.000000e+02
9.374409e-02 4.029507e-01 1.000000e+02
9.549045e-02 4.080722e-01 1.000000e+02
9.726934e-02 4.193918e-01 1.000000e+02
9.908137e-02 4.441883e-01 1.000000e+02
1.009272e-01 4.920229e-01 1.000000e+02
1.028073e-01 5.705656e-01 1.000000e+02
1.047225e-01 6.838858e-01 1.000000e+02
1.066734e-01 8.360170e-01 1.000000e+02
1.086606e-01 1.028480e+00 1.000000e+02
1.106848e-01 1.256519e+00 1.000000e+02
1.127468e-01 1.514083e+00 1.000000e+02
1.148472e-01 1.804755e+00 1.000000e+02
1.169866e-01 2.136076e+00 1.000000e+02
1.191660e-01 2.519928e+00 1.000000e+02
1.213859e-01 2.973637e+00 1.000000e+02
1.236472e-01 3.513023e+00 1.000000e+02
1.259506e-01 4.150181e+00 1.000000e+02
1.282970e-01 4.896959e+00 1.000000e+02
1.306870e-01 5.764209e+00 1.000000e+02
1.331216e-01 6.760774e+00 1.000000e+02
1.356015e-01 7.892284e+00 1.000000e+02
1.381276e-01 9.159385e+00 1.000000e+02
1.407008e-01 1.055609e+01 1.000000e+02
1.433219e-01 1.209008e+01 1.000000e+02
1.459919e-01 1.381755e+01 1.000000e+02
1.487115e-01 1.582901e+01 1.000000e+02
1.514819e-01 1.825395e+01 1.000000e+02
1.543038e-01 2.120009e+01 1.000000e+02
1.571784e-01 2.472097e+01 1.000000e+02
1.601064e-01 2.885051e+01 1.000000e+02
1.630891e-01 3.361038e+01 1.000000e+02
1.661273e-01 3.906867e+01 1.000000e+02
1.692220e-01 4.531389e+01 1.000000e+02
1.723745e-01 5.244374e+01 1.000000e+02
1.755856e-01 6.056583e+01 1.000000e+02
1.788566e-01 6.979843e+01 1.000000e+02
1.821885e-01 8.027233e+01 1.000000e+02
1.855825e-01 9.214709e+01 1.000000e+02
1.890397e-01 1.056176e+02 1.000000e+02
1.925614e-01 1.209131e+02 1.000000e+02
1.961486e-01 1.383050e+02 1.000000e+02
1.998026e-01 1.581151e+02 1.000000e+02
2.035248e-01 1.807169e+02 1.000000e+02
2.073162e-01 2.064973e+02 1.000000e+02
2.111783e-01 2.358771e+02 1.000000e+02
2.151123e-01 2.693260e+02 1.000000e+02
2.191197e-01 3.073672e+02 1.000000e+02
2.232016e-01 3.505813e+02 1.000000e+02
2.273597e-01 3.996112e+02 1.000000e+02
2.315951e-01 4.551658e+02 1.000000e+02
2.359095e-01 5.180243e+02 1.000000e+02
2.403043e-01 5.890397e+02 1.000000e+02
2.447809e-01 6.691424e+02 1.000000e+02
2.493409e-01 7.593421e+02 1.000000e+02
2.539859e-01 8.607409e+02 1.000000e+02
2.587174e-01 9.746076e+02 1.000000e+02
2.635371e-01 1.102374e+03 1.000000e+02
2.684465e-01 1.245633e+03 1.000000e+02
2.734474e-01 1.406153e+03 1.000000e+02
2.785414e-01 1.585900e+03 1.000000e+02
2.837304e-01 1.787063e+03 1.000000e+02
2.890160e-01 2.012074e+03 1.000000e+02
2.944000e-01 2.263645e+03 1.000000e+02
2.998844e-01 2.544792e+03 1.000000e+02
3.054710e-01 2.858838e+03 1.000000e+02
3.111616e-01 3.209285e+03 1.000000e+02
3.169582e-01 3.599894e+03 1.000000e+02
3.228628e-01 4.034736e+03 1.000000e+02
3.288774e-01 4.518206e+03 1.000000e+02
3.350041e-01 5.055027e+03 1.000000e+02
3.412449e-01 5.650266e+03 1.000000e+02
3.476019e-01 6.309335e+03 1.000000e+02
3.540774e-01 7.038030e+03 1.000000e+02
3.606735e-01 7.843068e+03 1.000000e+02
3.673925e-01 8.732217e+03 1.000000e+02
3.742366e-01 9.714128e+03 1.000000e+02
3.812083e-01 1.079843e+04 1.000000e+02
3.883098e-01 1.199589e+04 1.000000e+02
3.955436e-01 1.331851e+04 1.000000e+02
4.029122e-01 1.477972e+04 1.000000e+02
4.104181e-01 1.639317e+04 1.000000e+02
4.180637e-01 1.817164e+04 1.000000e+02
4.258518e-01 2.012818e+04 1.000000e+02
4.337850e-01 2.227609e+04 1.000000e+02
4.418660e-01 2.462877e+04 1.000000e+02
4.500975e-01 2.719949e+04 1.000000e+02
4.584824e-01 3.000246e+04 1.000000e+02
4.670234e-01 3.305736e+04 1.000000e+02
4.757236e-01 3.638726e+04 1.000000e+02
4.845859e-01 4.001798e+04 1.000000e+02
4.936132e-01 4.397849e+04 1.000000e+02
5.028087e-01 4.830134e+04 1.000000e+02
5.121755e-01 5.302037e+04 1.000000e+02
5.217169e-01 5.816783e+04 1.000000e+02
5.314359e-01 6.377749e+04 1.000000e+02
5.413360e-01 6.988506e+04 1.000000e+02
5.514206e-01 7.652822e+04 1.000000e+02
5.616930e-01 8.374659e+04 1.000000e+02
5.721568e-01 9.158175e+04 1.000000e+02
5.828155e-01 1.000772e+05 1.000000e+02
5.936727e-01 1.092781e+05 1.000000e+02
6.047322e-01 1.192317e+05 1.000000e+02
6.159978e-01 1.299889e+05 1.000000e+02
6.274732e-01 1.416060e+05 1.000000e+02
6.391624e-01 1.541429e+05 1.000000e+02
6.510694e-01 1.676630e+05 1.000000e+02
6.631981e-01 1.822335e+05 1.000000e+02
6.755528e-01 1.979255e+05 1.000000e+02
6.881377e-01 2.148145e+05 1.000000e+02
7.009570e-01 2.329802e+05 1.000000e+02
7.140151e-01 2.525062e+05 1.000000e+02
7.273165e-01 2.734785e+05 1.000000e+02
7.408657e-01 2.959863e+05 1.000000e+02
7.546673e-01 3.201230e+05 1.000000e+02
7.687260e-01 3.459858e+05 1.000000e+02
7.830465e-01 3.736760e+05 1.000000e+02
7.976339e-01 4.032990e+05 1.000000e+02
8.124930e-01 4.349643e+05 1.000000e+02
8.276289e-01 4.687871e+05 1.000000e+02
8.430468e-01 5.048877e+05 1.000000e+02
8.587519e-01 5.433911e+05 1.000000e+02
8.747496e-01 5.844272e+05 1.000000e+02
8.910453e-01 6.281305e+05 1.000000e+02
9.076446e-01 6.746406e+05 1.000000e+02
9.245531e-01 7.241002e+05 1.000000e+02
9.417766e-01 7.766545e+05 1.000000e+02
9.593209e-01 8.324521e+05 1.000000e+02
9.771921e-01 8.916455e+05 1.000000e+02
9.953962e-01 9.543903e+05 1.000000e+02
1.013939e+00 1.020846e+06 1.000000e+02
1.032828e+00 1.091177e+06 1.000000e+02
1.052069e+00 1.165554e+06 1.000000e+02
1.071668e+00 1.244152e+06 1.000000e+02
1.091632e+00 1.327147e+06 1.000000e+02
1.111968e+00 1.414722e+06 1.000000e+02
1.132683e+00 1.507060e+06 1.000000e+02
1.153783e+00 1.604349e+06 1.000000e+02
1.175277e+00 1.706779e+06 1.000000e+02
1.197171e+00 1.814543e+06 1.000000e+02
1.219473e+00 1.927835e+06 1.000000e+02
1.242191e+00 2.046853e+06 1.000000e+02
1.265332e+00 2.171798e+06 1.000000e+02
1.288904e+00 2.302906e+06 1.000000e+02
1.312915e+00 2.440444e+06 1.000000e+02
1.337373e+00 2.584696e+06 1.000000e+02
1.362287e+00 2.735964e+06 1.000000e+02
1.387665e+00 2.894566e+06 1.000000e+02
1.413516e+00 3.060842e+06 1.000000e+02
1.439848e+00 3.235153e+06 1.000000e+02
1.466671e+00 3.417885e+06 1.000000e+02
1.493993e+00 3.609447e+06 1.000000e+02
1.521825e+00 3.810245e+06 1.000000e+02
1.550175e+00 4.020439e+06 1.000000e+02
1.579053e+00 4.240021e+06 1.000000e+02
1.608469e+00 4.468913e+06 1.000000e+02
1.638434e+00 4.706963e+06 1.000000e+02
1.668956e+00 4.953932e+06 1.000000e+02
1.700047e+00 5.209490e+06 1.000000e+02
1.731717e+00 5.473206e+06 1.000000e+02
1.763977e+00 5.744555e+06 1.000000e+02
1.796838e+00 6.023386e+06 1.000000e+02
1.830312e+00 6.310131e+06 1.000000e+02
1.864409e+00 6.605347e+06 1.000000e+02
1.899141e+00 6.909692e+06 1.000000e+02
1.934520e+00 7.223932e+06 1.000000e+02
1.970558e+00 7.548954e+06 1.000000e+02
2.007267e+00 7.885770e+06 1.000000e+02
2.044661e+00 8.235235e+06 1.000000e+02
2.082751e+00 8.597597e+06 1.000000e+02
2.121550e+00 8.972988e+06 1.000000e+02
2.161073e+00 9.361509e+06 1.000000e+02
2.201331e+00 9.763219e+06 1.000000e+02
2.242340e+00 1.017814e+07 1.000000e+02
2.284112e+00 1.060625e+07 1.000000e+02
2.326663e+00 1.104748e+07 1.000000e+02
2.370006e+00 1.150170e+07 1.000000e+02
2.414157e+00 1.196873e+07 1.000000e+02
2.459130e+00 1.244833e+07 1.000000e+02
2.504942e+00 1.294020e+07 1.000000e+02
2.551606e+00 1.344408e+07 1.000000e+02
2.599140e+00 1.396001e+07 1.000000e+02
2.647559e+00 1.448808e+07 1.000000e+02
2.696881e+00 1.502841e+07 1.000000e+02
2.747121e+00 1.558109e+07 1.000000e+02
2.798297e+00 1.614624e+07 1.000000e+02
2.850426e+00 1.672401e+07 1.000000e+02
2.903527e+00 1.731452e+07 1.000000e+02
2.957617e+00 1.791793e+07 1.000000e+02
3.012714e+00 1.853441e+07 1.000000e+02
3.068838e+00 1.916406e+07 1.000000e+02
3.126007e+00 1.980679e+07 1.000000e+02
3.184242e+00 2.046250e+07 1.000000e+02
3.243561e+00 2.113106e+07 1.000000e+02
3.303985e+00 2.181230e+07 1.000000e+02
3.365535e+00 2.250604e+07 1.000000e+02
3.428231e+00 2.321209e+07 1.000000e+02
3.492096e+00 2.393022e+07 1.000000e+02
3.557150e+00 2.466019e+07 1.000000e+02
3.623416e+00 2.540181e+07 1.000000e+02
3.690917e+00 2.615487e+07 1.000000e+02
3.759675e+00 2.691916e+07 1.000000e+02
3.829714e+00 2.769447e+07 1.000000e+02
3.901058e+00 2.848054e+07 1.000000e+02
3.973730e+00 2.927713e+07 1.000000e+02
4.047757e+00 3.008398e+07 1.000000e+02
4.123163e+00 3.090076e+07 1.000000e+02
4.199973e+00 3.172711e+07 1.000000e+02
4.278214e+00 3.256265e+07 1.000000e+02
4.357913e+00 3.340696e+07 1.000000e+02
4.439097e+00 3.425962e+07 1.000000e+02
4.521792e+00 3.512019e+07 1.000000e+02
4.606029e+00 3.598820e+07 1.000000e+02
4.691835e+00 3.686318e+07 1.000000e+02
4.779239e+00 3.774461e+07 1.000000e+02
4.868271e+00 3.863198e+07 1.000000e+02
4.958962e+00 3.952476e+07 1.000000e+02
5.051342e+00 4.042240e+07 1.000000e+02
5.145444e+00 4.132429e+07 1.000000e+02
5.241298e+00 4.222979e+07 1.000000e+02
5.338938e+00 4.313825e+07 1.000000e+02
5.438397e+00 4.404899e+07 1.000000e+02
5.539709e+00 4.496131e+07 1.000000e+02
5.642908e+00 4.587450e+07 1.000000e+02
5.748030e+00 4.678781e+07 1.000000e+02
5.855110e+00 4.770051e+07 1.000000e+02
5.964185e+00 4.861182e+07 1.000000e+02
6.075292e+00 4.952098e+07 1.000000e+02
6.188468e+00 5.042717e+07 1.000000e+02
6.303753e+00 5.132957e+07 1.000000e+02
6.421186e+00 5.222736e+07 1.000000e+02
6.540806e+00 5.311969e+07 1.000000e+02
6.662655e+00 5.400571e+07 1.000000e+02
6.786773e+00 5.488456e+07 1.000000e+02
6.913204e+00 5.575536e+07 1.000000e+02
7.041990e+00 5.661724e+07 1.000000e+02
7.173175e+00 5.746934e+07 1.000000e+02
7.306804e+00 5.831084e+07 1.000000e+02
7.442922e+00 5.914092e+07 1.000000e+02
7.581576e+00 5.995878e+07 1.000000e+02
7.722814e+00 6.076359e+07 1.000000e+02
7.866682e+00 6.155456e+07 1.000000e+02
8.013230e+00 6.233088e+07 1.000000e+02
8.162509e+00 6.309179e+07 1.000000e+02
8.314568e+00 6.383658e+07 1.000000e+02
8.469460e+00 6.456457e+07 1.000000e+02
8.627237e+00 6.527508e+07 1.000000e+02
8.787954e+00 6.596746e+07 1.000000e+02
8.951665e+00 6.664109e+07 1.000000e+02
9.118425e+00 6.729535e+07 1.000000e+02
9.288292e+00 6.792964e+07 1.000000e+02
9.461324e+00 6.854339e+07 1.000000e+02
9.637579e+00 6.913605e+07 1.000000e+02
9.817117e+00 6.970709e+07 1.000000e+02
1.000000e+01 7.025600e+07 1.000000e+02
