# Li9 + d > Li8 + t   [Li9_d__Li8_t]   ref=TALYS2, Koning et al. 2023
# detailed balance: alpha=0.7816 beta=0 gamma=-25.453  Q=2.1934
# T9                 rate                error
1.000000e-03   1.000000e-35   1.000000e+02
1.018629e-03   1.099864e-35   1.000000e+02
1.037605e-03   1.217250e-35   1.000000e+02
1.056935e-03   1.355632e-35   1.000000e+02
1.076624e-03   1.519298e-35   1.000000e+02
1.096681e-03   1.713572e-35   1.000000e+02
1.117111e-03   1.945084e-35   1.000000e+02
1.137921e-03   2.222130e-35   1.000000e+02
1.159120e-03   2.555139e-35   1.000000e+02
1.180713e-03   2.957277e-35   1.000000e+02
1.202708e-03   3.445248e-35   1.000000e+02
1.225114e-03   4.040347e-35   1.000000e+02
1.247936e-03   4.769854e-35   1.000000e+02
1.271184e-03   5.668894e-35   1.000000e+02
1.294865e-03   6.782927e-35   1.000000e+02
1.318987e-03   8.171090e-35   1.000000e+02
1.343558e-03   9.910728e-35   1.000000e+02
1.368587e-03   1.210354e-34   1.000000e+02
1.394083e-03   1.488398e-34   1.000000e+02
1.420053e-03   1.843081e-34   1.000000e+02
1.446507e-03   2.298300e-34   1.000000e+02
1.473454e-03   2.886189e-34   1.000000e+02
1.500903e-03   3.650203e-34   1.000000e+02
1.528864e-03   4.649458e-34   1.000000e+02
1.557345e-03   5.964845e-34   1.000000e+02
1.586357e-03   7.707723e-34   1.000000e+02
1.615909e-03   1.003233e-33   1.000000e+02
1.646012e-03   1.315361e-33   1.000000e+02
1.676675e-03   1.737296e-33   1.000000e+02
1.707910e-03   2.311571e-33   1.000000e+02
1.739726e-03   3.098589e-33   1.000000e+02
1.772136e-03   4.184682e-33   1.000000e+02
1.805149e-03   5.694050e-33   1.000000e+02
1.838777e-03   7.806549e-33   1.000000e+02
1.873032e-03   1.078436e-32   1.000000e+02
1.907924e-03   1.501226e-32   1.000000e+02
1.943467e-03   2.105874e-32   1.000000e+02
1.979672e-03   2.976954e-32   1.000000e+02
2.016551e-03   4.241153e-32   1.000000e+02
2.054117e-03   6.089566e-32   1.000000e+02
2.092383e-03   8.812476e-32   1.000000e+02
2.131362e-03   1.285397e-31   1.000000e+02
2.171068e-03   1.889832e-31   1.000000e+02
2.211512e-03   2.800748e-31   1.000000e+02
2.252711e-03   4.184163e-31   1.000000e+02
2.294676e-03   6.301520e-31   1.000000e+02
2.337424e-03   9.567597e-31   1.000000e+02
2.380968e-03   1.464536e-30   1.000000e+02
2.425323e-03   2.260243e-30   1.000000e+02
2.470504e-03   3.517117e-30   1.000000e+02
2.516527e-03   5.518408e-30   1.000000e+02
2.563407e-03   8.730814e-30   1.000000e+02
2.611161e-03   1.392926e-29   1.000000e+02
2.659804e-03   2.241056e-29   1.000000e+02
2.709354e-03   3.636192e-29   1.000000e+02
2.759826e-03   5.950168e-29   1.000000e+02
2.811239e-03   9.820161e-29   1.000000e+02
2.863610e-03   1.634683e-28   1.000000e+02
2.916956e-03   2.744685e-28   1.000000e+02
2.971296e-03   4.648514e-28   1.000000e+02
3.026648e-03   7.942193e-28   1.000000e+02
3.083031e-03   1.370899e-27   1.000000e+02
3.140465e-03   2.397555e-27   1.000000e+02
3.198969e-03   4.261074e-27   1.000000e+02
3.258562e-03   7.718740e-27   1.000000e+02
3.319266e-03   1.429354e-26   1.000000e+02
3.381101e-03   2.713868e-26   1.000000e+02
3.444087e-03   5.298858e-26   1.000000e+02
3.508247e-03   1.067112e-25   1.000000e+02
3.573602e-03   2.223111e-25   1.000000e+02
3.640175e-03   4.805351e-25   1.000000e+02
3.707988e-03   1.080914e-24   1.000000e+02
3.777064e-03   2.537749e-24   1.000000e+02
3.847427e-03   6.237160e-24   1.000000e+02
3.919100e-03   1.609516e-23   1.000000e+02
3.992109e-03   4.373842e-23   1.000000e+02
4.066478e-03   1.253095e-22   1.000000e+02
4.142232e-03   3.751073e-22   1.000000e+02
4.219398e-03   1.158683e-21   1.000000e+02
4.298001e-03   3.647518e-21   1.000000e+02
4.378069e-03   1.155686e-20   1.000000e+02
4.459628e-03   3.639802e-20   1.000000e+02
4.542706e-03   1.125374e-19   1.000000e+02
4.627332e-03   3.373523e-19   1.000000e+02
4.713535e-03   9.683300e-19   1.000000e+02
4.801343e-03   2.628465e-18   1.000000e+02
4.890787e-03   6.663557e-18   1.000000e+02
4.981898e-03   1.558192e-17   1.000000e+02
5.074705e-03   3.326368e-17   1.000000e+02
5.169242e-03   6.518235e-17   1.000000e+02
5.265540e-03   1.187183e-16   1.000000e+02
5.363631e-03   2.035001e-16   1.000000e+02
5.463550e-03   3.324311e-16   1.000000e+02
5.565331e-03   5.240348e-16   1.000000e+02
5.669007e-03   8.071814e-16   1.000000e+02
5.774615e-03   1.230172e-15   1.000000e+02
5.882190e-03   1.878345e-15   1.000000e+02
5.991770e-03   2.909583e-15   1.000000e+02
6.103390e-03   4.619113e-15   1.000000e+02
6.217090e-03   7.505120e-15   1.000000e+02
6.332908e-03   1.241818e-14   1.000000e+02
6.450884e-03   2.082039e-14   1.000000e+02
6.571058e-03   3.519489e-14   1.000000e+02
6.693470e-03   5.968424e-14   1.000000e+02
6.818162e-03   1.010319e-13   1.000000e+02
6.945178e-03   1.698655e-13   1.000000e+02
7.074559e-03   2.823026e-13   1.000000e+02
7.206351e-03   4.630431e-13   1.000000e+02
7.340598e-03   7.504618e-13   1.000000e+02
7.477346e-03   1.203303e-12   1.000000e+02
7.616642e-03   1.911171e-12   1.000000e+02
7.758532e-03   3.010513e-12   1.000000e+02
7.903066e-03   4.709089e-12   1.000000e+02
8.050292e-03   7.323395e-12   1.000000e+02
8.200261e-03   1.131487e-11   1.000000e+02
8.353023e-03   1.730400e-11   1.000000e+02
8.508632e-03   2.609124e-11   1.000000e+02
8.667139e-03   3.863531e-11   1.000000e+02
8.828599e-03   5.596372e-11   1.000000e+02
8.993067e-03   7.898632e-11   1.000000e+02
9.160598e-03   1.084111e-10   1.000000e+02
9.331251e-03   1.457258e-10   1.000000e+02
9.505083e-03   1.936925e-10   1.000000e+02
9.682153e-03   2.570247e-10   1.000000e+02
9.862522e-03   3.437917e-10   1.000000e+02
1.004625e-02   4.679830e-10   1.000000e+02
1.023340e-02   6.514982e-10   1.000000e+02
1.042404e-02   9.237450e-10   1.000000e+02
1.061823e-02   1.327099e-09   1.000000e+02
1.081604e-02   1.921866e-09   1.000000e+02
1.101753e-02   2.791055e-09   1.000000e+02
1.122277e-02   4.049636e-09   1.000000e+02
1.143184e-02   5.874372e-09   1.000000e+02
1.164481e-02   8.532381e-09   1.000000e+02
1.186174e-02   1.242819e-08   1.000000e+02
1.208271e-02   1.818159e-08   1.000000e+02
1.230780e-02   2.673265e-08   1.000000e+02
1.253708e-02   3.948556e-08   1.000000e+02
1.277063e-02   5.855754e-08   1.000000e+02
1.300854e-02   8.714412e-08   1.000000e+02
1.325087e-02   1.300811e-07   1.000000e+02
1.349772e-02   1.947569e-07   1.000000e+02
1.374917e-02   2.924786e-07   1.000000e+02
1.400531e-02   4.405939e-07   1.000000e+02
1.426621e-02   6.657762e-07   1.000000e+02
1.453198e-02   1.009019e-06   1.000000e+02
1.480269e-02   1.533456e-06   1.000000e+02
1.507845e-02   2.336493e-06   1.000000e+02
1.535935e-02   3.568708e-06   1.000000e+02
1.564548e-02   5.463421e-06   1.000000e+02
1.593694e-02   8.382651e-06   1.000000e+02
1.623382e-02   1.288872e-05   1.000000e+02
1.653624e-02   1.985373e-05   1.000000e+02
1.684430e-02   3.062984e-05   1.000000e+02
1.715809e-02   4.731330e-05   1.000000e+02
1.747773e-02   7.315156e-05   1.000000e+02
1.780332e-02   1.131701e-04   1.000000e+02
1.813498e-02   1.751360e-04   1.000000e+02
1.847281e-02   2.710699e-04   1.000000e+02
1.881694e-02   4.196176e-04   1.000000e+02
1.916748e-02   6.496824e-04   1.000000e+02
1.952456e-02   1.006080e-03   1.000000e+02
1.988828e-02   1.558319e-03   1.000000e+02
2.025878e-02   2.414118e-03   1.000000e+02
2.063618e-02   3.738348e-03   1.000000e+02
2.102061e-02   5.781170e-03   1.000000e+02
2.141220e-02   8.919903e-03   1.000000e+02
2.181109e-02   1.371850e-02   1.000000e+02
2.221741e-02   2.101110e-02   1.000000e+02
2.263130e-02   3.201697e-02   1.000000e+02
2.305289e-02   4.849474e-02   1.000000e+02
2.348235e-02   7.294335e-02   1.000000e+02
2.391980e-02   1.088547e-01   1.000000e+02
2.436540e-02   1.610172e-01   1.000000e+02
2.481930e-02   2.358604e-01   1.000000e+02
2.528166e-02   3.418391e-01   1.000000e+02
2.575263e-02   4.903182e-01   1.000000e+02
2.623238e-02   6.967727e-01   1.000000e+02
2.672106e-02   9.820582e-01   1.000000e+02
2.721885e-02   1.374335e+00   1.000000e+02
2.772591e-02   1.911761e+00   1.000000e+02
2.824241e-02   2.646283e+00   1.000000e+02
2.876854e-02   3.649028e+00   1.000000e+02
2.930447e-02   5.018018e+00   1.000000e+02
2.985038e-02   6.889344e+00   1.000000e+02
3.040646e-02   9.449452e+00   1.000000e+02
3.097291e-02   1.290614e+01   1.000000e+02
3.154990e-02   1.745780e+01   1.000000e+02
3.213764e-02   2.326056e+01   1.000000e+02
3.273634e-02   3.036137e+01   1.000000e+02
3.334618e-02   3.861238e+01   1.000000e+02
3.396739e-02   4.758493e+01   1.000000e+02
3.460016e-02   5.651754e+01   1.000000e+02
3.524473e-02   6.434302e+01   1.000000e+02
3.590130e-02   6.983249e+01   1.000000e+02
3.657011e-02   7.185963e+01   1.000000e+02
3.725137e-02   6.972961e+01   1.000000e+02
3.794533e-02   6.345819e+01   1.000000e+02
3.865221e-02   5.386787e+01   1.000000e+02
3.937226e-02   4.242063e+01   1.000000e+02
4.010573e-02   3.082249e+01   1.000000e+02
4.085286e-02   2.066591e+01   1.000000e+02
4.161391e-02   1.297550e+01   1.000000e+02
4.238913e-02   7.760467e+00   1.000000e+02
4.317880e-02   4.497365e+00   1.000000e+02
4.398317e-02   2.568898e+00   1.000000e+02
4.480254e-02   1.471180e+00   1.000000e+02
4.563716e-02   8.592653e-01   1.000000e+02
4.648734e-02   5.206466e-01   1.000000e+02
4.735335e-02   3.329086e-01   1.000000e+02
4.823549e-02   2.284995e-01   1.000000e+02
4.913407e-02   1.712521e-01   1.000000e+02
5.004939e-02   1.425569e-01   1.000000e+02
5.098176e-02   1.332156e-01   1.000000e+02
5.193150e-02   1.381682e-01   1.000000e+02
5.289893e-02   1.565266e-01   1.000000e+02
5.388438e-02   1.906057e-01   1.000000e+02
5.488820e-02   2.455231e-01   1.000000e+02
5.591071e-02   3.292291e-01   1.000000e+02
5.695227e-02   4.522662e-01   1.000000e+02
5.801323e-02   6.263558e-01   1.000000e+02
5.909396e-02   8.606365e-01   1.000000e+02
6.019482e-02   1.154620e+00   1.000000e+02
6.131619e-02   1.496802e+00   1.000000e+02
6.245845e-02   1.880626e+00   1.000000e+02
6.362198e-02   2.301501e+00   1.000000e+02
6.480720e-02   2.757075e+00   1.000000e+02
6.601449e-02   3.249175e+00   1.000000e+02
6.724427e-02   3.785668e+00   1.000000e+02
6.849697e-02   4.382430e+00   1.000000e+02
6.977300e-02   5.065807e+00   1.000000e+02
7.107280e-02   5.872650e+00   1.000000e+02
7.239681e-02   6.828606e+00   1.000000e+02
7.374549e-02   7.951270e+00   1.000000e+02
7.511929e-02   9.256327e+00   1.000000e+02
7.651869e-02   1.075549e+01   1.000000e+02
7.794416e-02   1.245380e+01   1.000000e+02
7.939618e-02   1.434650e+01   1.000000e+02
8.087525e-02   1.641477e+01   1.000000e+02
8.238187e-02   1.861052e+01   1.000000e+02
8.391656e-02   2.084885e+01   1.000000e+02
8.547985e-02   2.301255e+01   1.000000e+02
8.707225e-02   2.495545e+01   1.000000e+02
8.869432e-02   2.651203e+01   1.000000e+02
9.034660e-02   2.751479e+01   1.000000e+02
9.202967e-02   2.793139e+01   1.000000e+02
9.374409e-02   2.802078e+01   1.000000e+02
9.549045e-02   2.809970e+01   1.000000e+02
9.726934e-02   2.849240e+01   1.000000e+02
9.908137e-02   2.954847e+01   1.000000e+02
1.009272e-01   3.168820e+01   1.000000e+02
1.028073e-01   3.516692e+01   1.000000e+02
1.047225e-01   4.000387e+01   1.000000e+02
1.066734e-01   4.618099e+01   1.000000e+02
1.086606e-01   5.356494e+01   1.000000e+02
1.106848e-01   6.180908e+01   1.000000e+02
1.127468e-01   7.059094e+01   1.000000e+02
1.148472e-01   7.997050e+01   1.000000e+02
1.169866e-01   9.012082e+01   1.000000e+02
1.191660e-01   1.013130e+02   1.000000e+02
1.213859e-01   1.139241e+02   1.000000e+02
1.236472e-01   1.282183e+02   1.000000e+02
1.259506e-01   1.443094e+02   1.000000e+02
1.282970e-01   1.622788e+02   1.000000e+02
1.306870e-01   1.821641e+02   1.000000e+02
1.331216e-01   2.039497e+02   1.000000e+02
1.356015e-01   2.275572e+02   1.000000e+02
1.381276e-01   2.528225e+02   1.000000e+02
1.407008e-01   2.794827e+02   1.000000e+02
1.433219e-01   3.075661e+02   1.000000e+02
1.459919e-01   3.379490e+02   1.000000e+02
1.487115e-01   3.719556e+02   1.000000e+02
1.514819e-01   4.113352e+02   1.000000e+02
1.543038e-01   4.572001e+02   1.000000e+02
1.571784e-01   5.096410e+02   1.000000e+02
1.601064e-01   5.684222e+02   1.000000e+02
1.630891e-01   6.331609e+02   1.000000e+02
1.661273e-01   7.041290e+02   1.000000e+02
1.692220e-01   7.817975e+02   1.000000e+02
1.723745e-01   8.666612e+02   1.000000e+02
1.755856e-01   9.592380e+02   1.000000e+02
1.788566e-01   1.060070e+03   1.000000e+02
1.821885e-01   1.169733e+03   1.000000e+02
1.855825e-01   1.288993e+03   1.000000e+02
1.890397e-01   1.418824e+03   1.000000e+02
1.925614e-01   1.560359e+03   1.000000e+02
1.961486e-01   1.714911e+03   1.000000e+02
1.998026e-01   1.884011e+03   1.000000e+02
2.035248e-01   2.069357e+03   1.000000e+02
2.073162e-01   2.272467e+03   1.000000e+02
2.111783e-01   2.494853e+03   1.000000e+02
2.151123e-01   2.738122e+03   1.000000e+02
2.191197e-01   3.003973e+03   1.000000e+02
2.232016e-01   3.294199e+03   1.000000e+02
2.273597e-01   3.610683e+03   1.000000e+02
2.315951e-01   3.955392e+03   1.000000e+02
2.359095e-01   4.330377e+03   1.000000e+02
2.403043e-01   4.737757e+03   1.000000e+02
2.447809e-01   5.179717e+03   1.000000e+02
2.493409e-01   5.658487e+03   1.000000e+02
2.539859e-01   6.176395e+03   1.000000e+02
2.587174e-01   6.736196e+03   1.000000e+02
2.635371e-01   7.340973e+03   1.000000e+02
2.684465e-01   7.994035e+03   1.000000e+02
2.734474e-01   8.698939e+03   1.000000e+02
2.785414e-01   9.459509e+03   1.000000e+02
2.837304e-01   1.027986e+04   1.000000e+02
2.890160e-01   1.116443e+04   1.000000e+02
2.944000e-01   1.211800e+04   1.000000e+02
2.998844e-01   1.314572e+04   1.000000e+02
3.054710e-01   1.425302e+04   1.000000e+02
3.111616e-01   1.544509e+04   1.000000e+02
3.169582e-01   1.672715e+04   1.000000e+02
3.228628e-01   1.810457e+04   1.000000e+02
3.288774e-01   1.958286e+04   1.000000e+02
3.350041e-01   2.116764e+04   1.000000e+02
3.412449e-01   2.286463e+04   1.000000e+02
3.476019e-01   2.467961e+04   1.000000e+02
3.540774e-01   2.661848e+04   1.000000e+02
3.606735e-01   2.868864e+04   1.000000e+02
3.673925e-01   3.089906e+04   1.000000e+02
3.742366e-01   3.325955e+04   1.000000e+02
3.812083e-01   3.578085e+04   1.000000e+02
3.883098e-01   3.847469e+04   1.000000e+02
3.955436e-01   4.135395e+04   1.000000e+02
4.029122e-01   4.443274e+04   1.000000e+02
4.104181e-01   4.772352e+04   1.000000e+02
4.180637e-01   5.123521e+04   1.000000e+02
4.258518e-01   5.497587e+04   1.000000e+02
4.337850e-01   5.895275e+04   1.000000e+02
4.418660e-01   6.317209e+04   1.000000e+02
4.500975e-01   6.763889e+04   1.000000e+02
4.584824e-01   7.235895e+04   1.000000e+02
4.670234e-01   7.734640e+04   1.000000e+02
4.757236e-01   8.261904e+04   1.000000e+02
4.845859e-01   8.819675e+04   1.000000e+02
4.936132e-01   9.410172e+04   1.000000e+02
5.028087e-01   1.003587e+05   1.000000e+02
5.121755e-01   1.069913e+05   1.000000e+02
5.217169e-01   1.140176e+05   1.000000e+02
5.314359e-01   1.214558e+05   1.000000e+02
5.413360e-01   1.293240e+05   1.000000e+02
5.514206e-01   1.376406e+05   1.000000e+02
5.616930e-01   1.464243e+05   1.000000e+02
5.721568e-01   1.556936e+05   1.000000e+02
5.828155e-01   1.654671e+05   1.000000e+02
5.936727e-01   1.757630e+05   1.000000e+02
6.047322e-01   1.865997e+05   1.000000e+02
6.159978e-01   1.979975e+05   1.000000e+02
6.274732e-01   2.099801e+05   1.000000e+02
6.391624e-01   2.225723e+05   1.000000e+02
6.510694e-01   2.357999e+05   1.000000e+02
6.631981e-01   2.496896e+05   1.000000e+02
6.755528e-01   2.642691e+05   1.000000e+02
6.881377e-01   2.795673e+05   1.000000e+02
7.009570e-01   2.956141e+05   1.000000e+02
7.140151e-01   3.124402e+05   1.000000e+02
7.273165e-01   3.300750e+05   1.000000e+02
7.408657e-01   3.485484e+05   1.000000e+02
7.546673e-01   3.678909e+05   1.000000e+02
7.687260e-01   3.881334e+05   1.000000e+02
7.830465e-01   4.093075e+05   1.000000e+02
7.976339e-01   4.314455e+05   1.000000e+02
8.124930e-01   4.545800e+05   1.000000e+02
8.276289e-01   4.787455e+05   1.000000e+02
8.430468e-01   5.039775e+05   1.000000e+02
8.587519e-01   5.303124e+05   1.000000e+02
8.747496e-01   5.577876e+05   1.000000e+02
8.910453e-01   5.864411e+05   1.000000e+02
9.076446e-01   6.163118e+05   1.000000e+02
9.245531e-01   6.474391e+05   1.000000e+02
9.417766e-01   6.798625e+05   1.000000e+02
9.593209e-01   7.136223e+05   1.000000e+02
9.771921e-01   7.487591e+05   1.000000e+02
9.953962e-01   7.853146e+05   1.000000e+02
1.013939e+00   8.233307e+05   1.000000e+02
1.032828e+00   8.628501e+05   1.000000e+02
1.052069e+00   9.039155e+05   1.000000e+02
1.071668e+00   9.465705e+05   1.000000e+02
1.091632e+00   9.908588e+05   1.000000e+02
1.111968e+00   1.036825e+06   1.000000e+02
1.132683e+00   1.084514e+06   1.000000e+02
1.153783e+00   1.133970e+06   1.000000e+02
1.175277e+00   1.185241e+06   1.000000e+02
1.197171e+00   1.238371e+06   1.000000e+02
1.219473e+00   1.293408e+06   1.000000e+02
1.242191e+00   1.350398e+06   1.000000e+02
1.265332e+00   1.409390e+06   1.000000e+02
1.288904e+00   1.470448e+06   1.000000e+02
1.312915e+00   1.533652e+06   1.000000e+02
1.337373e+00   1.599086e+06   1.000000e+02
1.362287e+00   1.666839e+06   1.000000e+02
1.387665e+00   1.737008e+06   1.000000e+02
1.413516e+00   1.809696e+06   1.000000e+02
1.439848e+00   1.885013e+06   1.000000e+02
1.466671e+00   1.963077e+06   1.000000e+02
1.493993e+00   2.044013e+06   1.000000e+02
1.521825e+00   2.127943e+06   1.000000e+02
1.550175e+00   2.214895e+06   1.000000e+02
1.579053e+00   2.304837e+06   1.000000e+02
1.608469e+00   2.397718e+06   1.000000e+02
1.638434e+00   2.493469e+06   1.000000e+02
1.668956e+00   2.591998e+06   1.000000e+02
1.700047e+00   2.693193e+06   1.000000e+02
1.731717e+00   2.796915e+06   1.000000e+02
1.763977e+00   2.903007e+06   1.000000e+02
1.796838e+00   3.011442e+06   1.000000e+02
1.830312e+00   3.122391e+06   1.000000e+02
1.864409e+00   3.236062e+06   1.000000e+02
1.899141e+00   3.352689e+06   1.000000e+02
1.934520e+00   3.472537e+06   1.000000e+02
1.970558e+00   3.595904e+06   1.000000e+02
2.007267e+00   3.723119e+06   1.000000e+02
2.044661e+00   3.854459e+06   1.000000e+02
2.082751e+00   3.990005e+06   1.000000e+02
2.121550e+00   4.129811e+06   1.000000e+02
2.161073e+00   4.273920e+06   1.000000e+02
2.201331e+00   4.422371e+06   1.000000e+02
2.242340e+00   4.575193e+06   1.000000e+02
2.284112e+00   4.732407e+06   1.000000e+02
2.326663e+00   4.894023e+06   1.000000e+02
2.370006e+00   5.060044e+06   1.000000e+02
2.414157e+00   5.230458e+06   1.000000e+02
2.459130e+00   5.405245e+06   1.000000e+02
2.504942e+00   5.584369e+06   1.000000e+02
2.551606e+00   5.767815e+06   1.000000e+02
2.599140e+00   5.955652e+06   1.000000e+02
2.647559e+00   6.147969e+06   1.000000e+02
2.696881e+00   6.344858e+06   1.000000e+02
2.747121e+00   6.546416e+06   1.000000e+02
2.798297e+00   6.752745e+06   1.000000e+02
2.850426e+00   6.963950e+06   1.000000e+02
2.903527e+00   7.180144e+06   1.000000e+02
2.957617e+00   7.401444e+06   1.000000e+02
3.012714e+00   7.627971e+06   1.000000e+02
3.068838e+00   7.859831e+06   1.000000e+02
3.126007e+00   8.097084e+06   1.000000e+02
3.184242e+00   8.339782e+06   1.000000e+02
3.243561e+00   8.587975e+06   1.000000e+02
3.303985e+00   8.841709e+06   1.000000e+02
3.365535e+00   9.101026e+06   1.000000e+02
3.428231e+00   9.365966e+06   1.000000e+02
3.492096e+00   9.636564e+06   1.000000e+02
3.557150e+00   9.912856e+06   1.000000e+02
3.623416e+00   1.019489e+07   1.000000e+02
3.690917e+00   1.048274e+07   1.000000e+02
3.759675e+00   1.077644e+07   1.000000e+02
3.829714e+00   1.107606e+07   1.000000e+02
3.901058e+00   1.138166e+07   1.000000e+02
3.973730e+00   1.169328e+07   1.000000e+02
4.047757e+00   1.201099e+07   1.000000e+02
4.123163e+00   1.233483e+07   1.000000e+02
4.199973e+00   1.266482e+07   1.000000e+02
4.278214e+00   1.300100e+07   1.000000e+02
4.357913e+00   1.334339e+07   1.000000e+02
4.439097e+00   1.369201e+07   1.000000e+02
4.521792e+00   1.404688e+07   1.000000e+02
4.606029e+00   1.440803e+07   1.000000e+02
4.691835e+00   1.477545e+07   1.000000e+02
4.779239e+00   1.514917e+07   1.000000e+02
