# Be7 + t > Li6 + a   [Be7_t__Li6_a]   ref=TALYS2, Koning et al. 2023
# detailed balance: alpha=2.1977 beta=0 gamma=-164.878  Q=14.2081
# T9                 rate                error
1.000000e-03   1.000000e-35   1.000000e+02
1.018629e-03   1.065831e-35   1.000000e+02
1.037605e-03   1.138722e-35   1.000000e+02
1.056935e-03   1.219609e-35   1.000000e+02
1.076624e-03   1.309576e-35   1.000000e+02
1.096681e-03   1.409875e-35   1.000000e+02
1.117111e-03   1.521960e-35   1.000000e+02
1.137921e-03   1.647525e-35   1.000000e+02
1.159120e-03   1.788545e-35   1.000000e+02
1.180713e-03   1.947329e-35   1.000000e+02
1.202708e-03   2.126592e-35   1.000000e+02
1.225114e-03   2.329522e-35   1.000000e+02
1.247936e-03   2.559885e-35   1.000000e+02
1.271184e-03   2.822137e-35   1.000000e+02
1.294865e-03   3.121569e-35   1.000000e+02
1.318987e-03   3.464478e-35   1.000000e+02
1.343558e-03   3.858386e-35   1.000000e+02
1.368587e-03   4.312308e-35   1.000000e+02
1.394083e-03   4.837077e-35   1.000000e+02
1.420053e-03   5.445758e-35   1.000000e+02
1.446507e-03   6.154161e-35   1.000000e+02
1.473454e-03   6.981481e-35   1.000000e+02
1.500903e-03   7.951105e-35   1.000000e+02
1.528864e-03   9.091628e-35   1.000000e+02
1.557345e-03   1.043814e-34   1.000000e+02
1.586357e-03   1.203385e-34   1.000000e+02
1.615909e-03   1.393220e-34   1.000000e+02
1.646012e-03   1.619947e-34   1.000000e+02
1.676675e-03   1.891827e-34   1.000000e+02
1.707910e-03   2.219189e-34   1.000000e+02
1.739726e-03   2.615005e-34   1.000000e+02
1.772136e-03   3.095631e-34   1.000000e+02
1.805149e-03   3.681774e-34   1.000000e+02
1.838777e-03   4.399765e-34   1.000000e+02
1.873032e-03   5.283228e-34   1.000000e+02
1.907924e-03   6.375285e-34   1.000000e+02
1.943467e-03   7.731492e-34   1.000000e+02
1.979672e-03   9.423745e-34   1.000000e+02
2.016551e-03   1.154551e-33   1.000000e+02
2.054117e-03   1.421888e-33   1.000000e+02
2.092383e-03   1.760407e-33   1.000000e+02
2.131362e-03   2.191238e-33   1.000000e+02
2.171068e-03   2.742378e-33   1.000000e+02
2.211512e-03   3.451118e-33   1.000000e+02
2.252711e-03   4.367369e-33   1.000000e+02
2.294676e-03   5.558282e-33   1.000000e+02
2.337424e-03   7.114672e-33   1.000000e+02
2.380968e-03   9.160009e-33   1.000000e+02
2.425323e-03   1.186306e-32   1.000000e+02
2.470504e-03   1.545574e-32   1.000000e+02
2.516527e-03   2.025858e-32   1.000000e+02
2.563407e-03   2.671695e-32   1.000000e+02
2.611161e-03   3.545328e-32   1.000000e+02
2.659804e-03   4.734245e-32   1.000000e+02
2.709354e-03   6.362134e-32   1.000000e+02
2.759826e-03   8.604899e-32   1.000000e+02
2.811239e-03   1.171420e-31   1.000000e+02
2.863610e-03   1.605226e-31   1.000000e+02
2.916956e-03   2.214367e-31   1.000000e+02
2.971296e-03   3.075289e-31   1.000000e+02
3.026648e-03   4.300213e-31   1.000000e+02
3.083031e-03   6.059077e-31   1.000000e+02
3.140465e-03   8.615833e-31   1.000000e+02
3.198969e-03   1.238337e-30   1.000000e+02
3.258562e-03   1.801808e-30   1.000000e+02
3.319266e-03   2.658170e-30   1.000000e+02
3.381101e-03   3.982341e-30   1.000000e+02
3.444087e-03   6.068095e-30   1.000000e+02
3.508247e-03   9.418926e-30   1.000000e+02
3.573602e-03   1.491634e-29   1.000000e+02
3.640175e-03   2.413859e-29   1.000000e+02
3.707988e-03   3.997855e-29   1.000000e+02
3.777064e-03   6.787105e-29   1.000000e+02
3.847427e-03   1.182936e-28   1.000000e+02
3.919100e-03   2.119990e-28   1.000000e+02
3.992109e-03   3.912724e-28   1.000000e+02
4.066478e-03   7.442193e-28   1.000000e+02
4.142232e-03   1.452913e-27   1.000000e+02
4.219398e-03   2.894862e-27   1.000000e+02
4.298001e-03   5.853252e-27   1.000000e+02
4.378069e-03   1.194206e-26   1.000000e+02
4.459628e-03   2.444588e-26   1.000000e+02
4.542706e-03   4.992386e-26   1.000000e+02
4.627332e-03   1.011389e-25   1.000000e+02
4.713535e-03   2.021008e-25   1.000000e+02
4.801343e-03   3.960852e-25   1.000000e+02
4.890787e-03   7.570281e-25   1.000000e+02
4.981898e-03   1.403039e-24   1.000000e+02
5.074705e-03   2.509684e-24   1.000000e+02
5.169242e-03   4.343379e-24   1.000000e+02
5.265540e-03   7.313813e-24   1.000000e+02
5.363631e-03   1.205096e-23   1.000000e+02
5.463550e-03   1.953960e-23   1.000000e+02
5.565331e-03   3.135307e-23   1.000000e+02
5.669007e-03   5.006904e-23   1.000000e+02
5.774615e-03   8.002721e-23   1.000000e+02
5.882190e-03   1.287478e-22   1.000000e+02
5.991770e-03   2.096667e-22   1.000000e+02
6.103390e-03   3.472403e-22   1.000000e+02
6.217090e-03   5.846617e-22   1.000000e+02
6.332908e-03   9.989474e-22   1.000000e+02
6.450884e-03   1.728754e-21   1.000000e+02
6.571058e-03   3.024583e-21   1.000000e+02
6.693470e-03   5.339846e-21   1.000000e+02
6.818162e-03   9.495374e-21   1.000000e+02
6.945178e-03   1.697480e-20   1.000000e+02
7.074559e-03   3.045220e-20   1.000000e+02
7.206351e-03   5.477080e-20   1.000000e+02
7.340598e-03   9.874293e-20   1.000000e+02
7.477346e-03   1.784059e-19   1.000000e+02
7.616642e-03   3.229819e-19   1.000000e+02
7.758532e-03   5.857774e-19   1.000000e+02
7.903066e-03   1.064124e-18   1.000000e+02
8.050292e-03   1.935909e-18   1.000000e+02
8.200261e-03   3.530261e-18   1.000000e+02
8.353023e-03   6.469469e-18   1.000000e+02
8.508632e-03   1.194651e-17   1.000000e+02
8.667139e-03   2.228922e-17   1.000000e+02
8.828599e-03   4.213091e-17   1.000000e+02
8.993067e-03   8.089643e-17   1.000000e+02
9.160598e-03   1.578268e-16   1.000000e+02
9.331251e-03   3.094577e-16   1.000000e+02
9.505083e-03   6.012587e-16   1.000000e+02
9.682153e-03   1.141384e-15   1.000000e+02
9.862522e-03   2.087294e-15   1.000000e+02
1.004625e-02   3.625953e-15   1.000000e+02
1.023340e-02   5.957447e-15   1.000000e+02
1.042404e-02   9.392513e-15   1.000000e+02
1.061823e-02   1.444807e-14   1.000000e+02
1.081604e-02   2.204789e-14   1.000000e+02
1.101753e-02   3.393714e-14   1.000000e+02
1.122277e-02   5.332599e-14   1.000000e+02
1.143184e-02   8.533385e-14   1.000000e+02
1.164481e-02   1.383511e-13   1.000000e+02
1.186174e-02   2.260905e-13   1.000000e+02
1.208271e-02   3.705148e-13   1.000000e+02
1.230780e-02   6.074015e-13   1.000000e+02
1.253708e-02   9.972609e-13   1.000000e+02
1.277063e-02   1.642247e-12   1.000000e+02
1.300854e-02   2.716437e-12   1.000000e+02
1.325087e-02   4.518165e-12   1.000000e+02
1.349772e-02   7.554529e-12   1.000000e+02
1.374917e-02   1.269066e-11   1.000000e+02
1.400531e-02   2.140630e-11   1.000000e+02
1.426621e-02   3.623842e-11   1.000000e+02
1.453198e-02   6.156175e-11   1.000000e+02
1.480269e-02   1.049414e-10   1.000000e+02
1.507845e-02   1.794968e-10   1.000000e+02
1.535935e-02   3.080364e-10   1.000000e+02
1.564548e-02   5.302883e-10   1.000000e+02
1.593694e-02   9.156143e-10   1.000000e+02
1.623382e-02   1.585339e-09   1.000000e+02
1.653624e-02   2.751709e-09   1.000000e+02
1.684430e-02   4.786188e-09   1.000000e+02
1.715809e-02   8.339106e-09   1.000000e+02
1.747773e-02   1.454880e-08   1.000000e+02
1.780332e-02   2.540674e-08   1.000000e+02
1.813498e-02   4.439375e-08   1.000000e+02
1.847281e-02   7.759908e-08   1.000000e+02
1.881694e-02   1.356929e-07   1.000000e+02
1.916748e-02   2.373743e-07   1.000000e+02
1.952456e-02   4.154287e-07   1.000000e+02
1.988828e-02   7.273703e-07   1.000000e+02
2.025878e-02   1.274066e-06   1.000000e+02
2.063618e-02   2.230914e-06   1.000000e+02
2.102061e-02   3.900535e-06   1.000000e+02
2.141220e-02   6.801576e-06   1.000000e+02
2.181109e-02   1.181497e-05   1.000000e+02
2.221741e-02   2.042146e-05   1.000000e+02
2.263130e-02   3.508052e-05   1.000000e+02
2.305289e-02   5.982238e-05   1.000000e+02
2.348235e-02   1.011518e-04   1.000000e+02
2.391980e-02   1.693905e-04   1.000000e+02
2.436540e-02   2.806104e-04   1.000000e+02
2.481930e-02   4.593160e-04   1.000000e+02
2.528166e-02   7.420732e-04   1.000000e+02
2.575263e-02   1.183694e-03   1.000000e+02
2.623238e-02   1.866680e-03   1.000000e+02
2.672106e-02   2.914266e-03   1.000000e+02
2.721885e-02   4.510335e-03   1.000000e+02
2.772591e-02   6.929467e-03   1.000000e+02
2.824241e-02   1.058263e-02   1.000000e+02
2.876854e-02   1.608724e-02   1.000000e+02
2.930447e-02   2.437557e-02   1.000000e+02
2.985038e-02   3.686418e-02   1.000000e+02
3.040646e-02   5.569208e-02   1.000000e+02
3.097291e-02   8.370420e-02   1.000000e+02
3.154990e-02   1.243161e-01   1.000000e+02
3.213764e-02   1.812104e-01   1.000000e+02
3.273634e-02   2.574922e-01   1.000000e+02
3.334618e-02   3.542582e-01   1.000000e+02
3.396739e-02   4.687052e-01   1.000000e+02
3.460016e-02   5.923159e-01   1.000000e+02
3.524473e-02   7.101174e-01   1.000000e+02
3.590130e-02   8.021944e-01   1.000000e+02
3.657011e-02   8.481081e-01   1.000000e+02
3.725137e-02   8.334787e-01   1.000000e+02
3.794533e-02   7.562388e-01   1.000000e+02
3.865221e-02   6.292077e-01   1.000000e+02
3.937226e-02   4.768143e-01   1.000000e+02
4.010573e-02   3.268738e-01   1.000000e+02
4.085286e-02   2.027434e-01   1.000000e+02
4.161391e-02   1.158751e-01   1.000000e+02
4.238913e-02   6.233448e-02   1.000000e+02
4.317880e-02   3.223879e-02   1.000000e+02
4.398317e-02   1.637416e-02   1.000000e+02
4.480254e-02   8.342322e-03   1.000000e+02
4.563716e-02   4.354917e-03   1.000000e+02
4.648734e-02   2.379335e-03   1.000000e+02
4.735335e-02   1.389734e-03   1.000000e+02
4.823549e-02   8.863921e-04   1.000000e+02
4.913407e-02   6.306025e-04   1.000000e+02
5.004939e-02   5.111382e-04   1.000000e+02
5.098176e-02   4.783118e-04   1.000000e+02
5.193150e-02   5.095069e-04   1.000000e+02
5.289893e-02   6.056282e-04   1.000000e+02
5.388438e-02   7.874632e-04   1.000000e+02
5.488820e-02   1.097927e-03   1.000000e+02
5.591071e-02   1.609114e-03   1.000000e+02
5.695227e-02   2.430082e-03   1.000000e+02
5.801323e-02   3.707038e-03   1.000000e+02
5.909396e-02   5.599588e-03   1.000000e+02
6.019482e-02   8.210493e-03   1.000000e+02
6.131619e-02   1.153591e-02   1.000000e+02
6.245845e-02   1.558889e-02   1.000000e+02
6.362198e-02   2.038583e-02   1.000000e+02
6.480720e-02   2.595731e-02   1.000000e+02
6.601449e-02   3.238006e-02   1.000000e+02
6.724427e-02   3.981536e-02   1.000000e+02
6.849697e-02   4.855651e-02   1.000000e+02
6.977300e-02   5.909306e-02   1.000000e+02
7.107280e-02   7.215320e-02   1.000000e+02
7.239681e-02   8.840534e-02   1.000000e+02
7.374549e-02   1.084753e-01   1.000000e+02
7.511929e-02   1.330255e-01   1.000000e+02
7.651869e-02   1.627094e-01   1.000000e+02
7.794416e-02   1.981010e-01   1.000000e+02
7.939618e-02   2.395957e-01   1.000000e+02
8.087525e-02   2.872675e-01   1.000000e+02
8.238187e-02   3.404120e-01   1.000000e+02
8.391656e-02   3.972031e-01   1.000000e+02
8.547985e-02   4.546530e-01   1.000000e+02
8.707225e-02   5.086007e-01   1.000000e+02
8.869432e-02   5.539536e-01   1.000000e+02
9.034660e-02   5.852636e-01   1.000000e+02
9.202967e-02   6.007933e-01   1.000000e+02
9.374409e-02   6.072825e-01   1.000000e+02
9.549045e-02   6.135008e-01   1.000000e+02
9.726934e-02   6.287307e-01   1.000000e+02
9.908137e-02   6.634465e-01   1.000000e+02
1.009272e-01   7.312287e-01   1.000000e+02
1.028073e-01   8.426026e-01   1.000000e+02
1.047225e-01   1.002611e+00   1.000000e+02
1.066734e-01   1.216040e+00   1.000000e+02
1.086606e-01   1.484004e+00   1.000000e+02
1.106848e-01   1.798892e+00   1.000000e+02
1.127468e-01   2.151601e+00   1.000000e+02
1.148472e-01   2.546528e+00   1.000000e+02
1.169866e-01   2.993373e+00   1.000000e+02
1.191660e-01   3.507476e+00   1.000000e+02
1.213859e-01   4.111132e+00   1.000000e+02
1.236472e-01   4.824094e+00   1.000000e+02
1.259506e-01   5.660728e+00   1.000000e+02
1.282970e-01   6.634785e+00   1.000000e+02
1.306870e-01   7.758455e+00   1.000000e+02
1.331216e-01   9.041162e+00   1.000000e+02
1.356015e-01   1.048817e+01   1.000000e+02
1.381276e-01   1.209843e+01   1.000000e+02
1.407008e-01   1.386271e+01   1.000000e+02
1.433219e-01   1.578926e+01   1.000000e+02
1.459919e-01   1.794684e+01   1.000000e+02
1.487115e-01   2.044543e+01   1.000000e+02
1.514819e-01   2.344098e+01   1.000000e+02
1.543038e-01   2.705920e+01   1.000000e+02
1.571784e-01   3.135688e+01   1.000000e+02
1.601064e-01   3.636591e+01   1.000000e+02
1.630891e-01   4.210307e+01   1.000000e+02
1.661273e-01   4.864100e+01   1.000000e+02
1.692220e-01   5.607548e+01   1.000000e+02
1.723745e-01   6.451165e+01   1.000000e+02
1.755856e-01   7.406456e+01   1.000000e+02
1.788566e-01   8.485992e+01   1.000000e+02
1.821885e-01   9.703604e+01   1.000000e+02
1.855825e-01   1.107622e+02   1.000000e+02
1.890397e-01   1.262453e+02   1.000000e+02
1.925614e-01   1.437283e+02   1.000000e+02
1.961486e-01   1.634972e+02   1.000000e+02
1.998026e-01   1.858907e+02   1.000000e+02
2.035248e-01   2.112994e+02   1.000000e+02
2.073162e-01   2.401220e+02   1.000000e+02
2.111783e-01   2.727883e+02   1.000000e+02
2.151123e-01   3.097752e+02   1.000000e+02
2.191197e-01   3.516101e+02   1.000000e+02
2.232016e-01   3.988751e+02   1.000000e+02
2.273597e-01   4.522100e+02   1.000000e+02
2.315951e-01   5.123159e+02   1.000000e+02
2.359095e-01   5.799586e+02   1.000000e+02
2.403043e-01   6.559707e+02   1.000000e+02
2.447809e-01   7.412540e+02   1.000000e+02
2.493409e-01   8.367809e+02   1.000000e+02
2.539859e-01   9.436062e+02   1.000000e+02
2.587174e-01   1.062943e+03   1.000000e+02
2.635371e-01   1.196158e+03   1.000000e+02
2.684465e-01   1.344760e+03   1.000000e+02
2.734474e-01   1.510420e+03   1.000000e+02
2.785414e-01   1.694985e+03   1.000000e+02
2.837304e-01   1.900502e+03   1.000000e+02
2.890160e-01   2.129236e+03   1.000000e+02
2.944000e-01   2.383697e+03   1.000000e+02
2.998844e-01   2.666667e+03   1.000000e+02
3.054710e-01   2.981193e+03   1.000000e+02
3.111616e-01   3.330457e+03   1.000000e+02
3.169582e-01   3.717851e+03   1.000000e+02
3.228628e-01   4.147027e+03   1.000000e+02
3.288774e-01   4.621902e+03   1.000000e+02
3.350041e-01   5.146663e+03   1.000000e+02
3.412449e-01   5.725773e+03   1.000000e+02
3.476019e-01   6.363971e+03   1.000000e+02
3.540774e-01   7.066302e+03   1.000000e+02
3.606735e-01   7.838634e+03   1.000000e+02
3.673925e-01   8.687761e+03   1.000000e+02
3.742366e-01   9.621228e+03   1.000000e+02
3.812083e-01   1.064741e+04   1.000000e+02
3.883098e-01   1.177563e+04   1.000000e+02
3.955436e-01   1.301626e+04   1.000000e+02
4.029122e-01   1.438089e+04   1.000000e+02
4.104181e-01   1.588112e+04   1.000000e+02
4.180637e-01   1.752760e+04   1.000000e+02
4.258518e-01   1.933114e+04   1.000000e+02
4.337850e-01   2.130262e+04   1.000000e+02
4.418660e-01   2.345290e+04   1.000000e+02
4.500975e-01   2.579260e+04   1.000000e+02
4.584824e-01   2.833313e+04   1.000000e+02
4.670234e-01   3.109069e+04   1.000000e+02
4.757236e-01   3.408438e+04   1.000000e+02
4.845859e-01   3.733556e+04   1.000000e+02
4.936132e-01   4.086813e+04   1.000000e+02
5.028087e-01   4.470896e+04   1.000000e+02
5.121755e-01   4.888570e+04   1.000000e+02
5.217169e-01   5.342433e+04   1.000000e+02
5.314359e-01   5.835189e+04   1.000000e+02
5.413360e-01   6.369689e+04   1.000000e+02
5.514206e-01   6.948926e+04   1.000000e+02
5.616930e-01   7.576035e+04   1.000000e+02
5.721568e-01   8.254293e+04   1.000000e+02
5.828155e-01   8.987112e+04   1.000000e+02
5.936727e-01   9.778033e+04   1.000000e+02
6.047322e-01   1.063073e+05   1.000000e+02
6.159978e-01   1.154916e+05   1.000000e+02
6.274732e-01   1.253774e+05   1.000000e+02
6.391624e-01   1.360112e+05   1.000000e+02
6.510694e-01   1.474424e+05   1.000000e+02
6.631981e-01   1.597231e+05   1.000000e+02
6.755528e-01   1.729085e+05   1.000000e+02
6.881377e-01   1.870568e+05   1.000000e+02
7.009570e-01   2.022296e+05   1.000000e+02
7.140151e-01   2.184915e+05   1.000000e+02
7.273165e-01   2.359085e+05   1.000000e+02
7.408657e-01   2.545492e+05   1.000000e+02
7.546673e-01   2.744851e+05   1.000000e+02
7.687260e-01   2.957909e+05   1.000000e+02
7.830465e-01   3.185441e+05   1.000000e+02
7.976339e-01   3.428255e+05   1.000000e+02
8.124930e-01   3.687191e+05   1.000000e+02
8.276289e-01   3.963131e+05   1.000000e+02
8.430468e-01   4.256997e+05   1.000000e+02
8.587519e-01   4.569750e+05   1.000000e+02
8.747496e-01   4.902387e+05   1.000000e+02
8.910453e-01   5.255944e+05   1.000000e+02
9.076446e-01   5.631496e+05   1.000000e+02
9.245531e-01   6.030145e+05   1.000000e+02
9.417766e-01   6.453019e+05   1.000000e+02
9.593209e-01   6.901278e+05   1.000000e+02
9.771921e-01   7.376114e+05   1.000000e+02
9.953962e-01   7.878750e+05   1.000000e+02
1.013939e+00   8.410445e+05   1.000000e+02
1.032828e+00   8.972501e+05   1.000000e+02
1.052069e+00   9.566263e+05   1.000000e+02
1.071668e+00   1.019311e+06   1.000000e+02
1.091632e+00   1.085446e+06   1.000000e+02
1.111968e+00   1.155175e+06   1.000000e+02
1.132683e+00   1.228647e+06   1.000000e+02
1.153783e+00   1.306013e+06   1.000000e+02
1.175277e+00   1.387428e+06   1.000000e+02
1.197171e+00   1.473048e+06   1.000000e+02
1.219473e+00   1.563034e+06   1.000000e+02
1.242191e+00   1.657550e+06   1.000000e+02
1.265332e+00   1.756763e+06   1.000000e+02
1.288904e+00   1.860869e+06   1.000000e+02
1.312915e+00   1.970092e+06   1.000000e+02
1.337373e+00   2.084668e+06   1.000000e+02
1.362287e+00   2.204848e+06   1.000000e+02
1.387665e+00   2.330902e+06   1.000000e+02
1.413516e+00   2.463114e+06   1.000000e+02
1.439848e+00   2.601788e+06   1.000000e+02
1.466671e+00   2.747250e+06   1.000000e+02
1.493993e+00   2.899848e+06   1.000000e+02
1.521825e+00   3.059927e+06   1.000000e+02
1.550175e+00   3.227650e+06   1.000000e+02
1.579053e+00   3.403053e+06   1.000000e+02
1.608469e+00   3.586124e+06   1.000000e+02
1.638434e+00   3.776797e+06   1.000000e+02
1.668956e+00   3.974945e+06   1.000000e+02
1.700047e+00   4.180375e+06   1.000000e+02
1.731717e+00   4.392818e+06   1.000000e+02
1.763977e+00   4.611940e+06   1.000000e+02
1.796838e+00   4.837689e+06   1.000000e+02
1.830312e+00   5.070455e+06   1.000000e+02
1.864409e+00   5.310727e+06   1.000000e+02
1.899141e+00   5.559072e+06   1.000000e+02
1.934520e+00   5.816144e+06   1.000000e+02
1.970558e+00   6.082692e+06   1.000000e+02
2.007267e+00   6.359567e+06   1.000000e+02
2.044661e+00   6.647503e+06   1.000000e+02
2.082751e+00   6.946778e+06   1.000000e+02
2.121550e+00   7.257585e+06   1.000000e+02
2.161073e+00   7.580097e+06   1.000000e+02
2.201331e+00   7.914458e+06   1.000000e+02
2.242340e+00   8.260787e+06   1.000000e+02
2.284112e+00   8.619171e+06   1.000000e+02
2.326663e+00   8.989661e+06   1.000000e+02
2.370006e+00   9.372274e+06   1.000000e+02
2.414157e+00   9.766981e+06   1.000000e+02
2.459130e+00   1.017371e+07   1.000000e+02
2.504942e+00   1.059235e+07   1.000000e+02
2.551606e+00   1.102282e+07   1.000000e+02
2.599140e+00   1.146526e+07   1.000000e+02
2.647559e+00   1.191990e+07   1.000000e+02
2.696881e+00   1.238695e+07   1.000000e+02
2.747121e+00   1.286664e+07   1.000000e+02
2.798297e+00   1.335921e+07   1.000000e+02
2.850426e+00   1.386491e+07   1.000000e+02
2.903527e+00   1.438400e+07   1.000000e+02
2.957617e+00   1.491677e+07   1.000000e+02
3.012714e+00   1.546352e+07   1.000000e+02
3.068838e+00   1.602449e+07   1.000000e+02
3.126007e+00   1.659979e+07   1.000000e+02
3.184242e+00   1.718950e+07   1.000000e+02
3.243561e+00   1.779368e+07   1.000000e+02
3.303985e+00   1.841238e+07   1.000000e+02
3.365535e+00   1.904564e+07   1.000000e+02
3.428231e+00   1.969347e+07   1.000000e+02
3.492096e+00   2.035586e+07   1.000000e+02
3.557150e+00   2.103283e+07   1.000000e+02
3.623416e+00   2.172441e+07   1.000000e+02
3.690917e+00   2.243068e+07   1.000000e+02
3.759675e+00   2.315172e+07   1.000000e+02
3.829714e+00   2.388758e+07   1.000000e+02
3.901058e+00   2.463833e+07   1.000000e+02
3.973730e+00   2.540403e+07   1.000000e+02
4.047757e+00   2.618472e+07   1.000000e+02
4.123163e+00   2.698044e+07   1.000000e+02
4.199973e+00   2.779117e+07   1.000000e+02
4.278214e+00   2.861688e+07   1.000000e+02
4.357913e+00   2.945756e+07   1.000000e+02
4.439097e+00   3.031316e+07   1.000000e+02
4.521792e+00   3.118364e+07   1.000000e+02
4.606029e+00   3.206894e+07   1.000000e+02
4.691835e+00   3.296899e+07   1.000000e+02
4.779239e+00   3.388373e+07   1.000000e+02
